 1.00000000e-12  9.27000000e-01  4.70815310e-01  4.59936125e-01  5.34780116e-01  6.15334453e-01  6.48646837e-01  6.34199403e-01  5.66376822e-01  5.40410015e-01 
 1.02772000e-12  9.27000000e-01  4.73360448e-01  4.62356139e-01  5.37645070e-01  6.18193769e-01  6.51015595e-01  6.36861789e-01  5.69338781e-01  5.43437849e-01 
 1.08316000e-12  9.27000000e-01  4.78949951e-01  4.67833924e-01  5.43276783e-01  6.23219811e-01  6.55113683e-01  6.41492926e-01  5.74879345e-01  5.49230390e-01 
 1.19404001e-12  9.27000000e-01  4.86317527e-01  4.74968013e-01  5.49241135e-01  6.27195696e-01  6.57502506e-01  6.44795757e-01  5.80226167e-01  5.55323741e-01 
 1.33847857e-12  9.27000000e-01  4.88040075e-01  4.76262355e-01  5.48714282e-01  6.24085447e-01  6.52642594e-01  6.40938693e-01  5.78836532e-01  5.54920112e-01 
 1.62735570e-12  9.27000000e-01  4.83781866e-01  4.71566755e-01  5.40933385e-01  6.12488758e-01  6.38915477e-01  6.28327105e-01  5.69612625e-01  5.47203296e-01 
 2.20510994e-12  9.27000000e-01  4.73964211e-01  4.61536309e-01  5.28341315e-01  5.96619145e-01  6.21526942e-01  6.11364718e-01  5.55543320e-01  5.34213263e-01 
 3.05295512e-12  9.27000000e-01  4.68783856e-01  4.55953908e-01  5.21640258e-01  5.87931928e-01  6.12148901e-01  6.01646808e-01  5.47791118e-01  5.26639970e-01 
 3.95943579e-12  9.27000000e-01  4.67088786e-01  4.53719451e-01  5.18967051e-01  5.84003376e-01  6.07817529e-01  5.97016941e-01  5.44561093e-01  5.23413364e-01 
 5.17646747e-12  9.27000000e-01  4.66342813e-01  4.52649774e-01  5.17597803e-01  5.81553873e-01  6.05089641e-01  5.94042842e-01  5.42764193e-01  5.21680255e-01 
 6.90647631e-12  9.27000000e-01  4.66023893e-01  4.52148294e-01  5.16981923e-01  5.80229235e-01  6.03525061e-01  5.92331284e-01  5.41840048e-01  5.20861422e-01 
 1.00692971e-11  9.27000000e-01  4.66151568e-01  4.52332315e-01  5.17033981e-01  5.79767473e-01  6.02844224e-01  5.91610228e-01  5.41585490e-01  5.20854813e-01 
 1.35883748e-11  9.27000000e-01  4.66256752e-01  4.52495633e-01  5.17177865e-01  5.79823376e-01  6.02784959e-01  5.91637533e-01  5.41648050e-01  5.21086468e-01 
 2.04961718e-11  9.27000000e-01  4.66792989e-01  4.53147829e-01  5.17727938e-01  5.80184339e-01  6.03067177e-01  5.92061495e-01  5.42148932e-01  5.21759681e-01 
 2.72063957e-11  9.27000000e-01  4.67226385e-01  4.53626422e-01  5.18208322e-01  5.80616868e-01  6.03479279e-01  5.92562440e-01  5.42656399e-01  5.22295145e-01 
 3.62928195e-11  9.27000000e-01  4.68055818e-01  4.54564813e-01  5.19097554e-01  5.81377039e-01  6.04216515e-01  5.93364085e-01  5.43498032e-01  5.23186900e-01 
 4.74369856e-11  9.27000000e-01  4.68908807e-01  4.55539161e-01  5.20112687e-01  5.82358388e-01  6.05153848e-01  5.94355043e-01  5.44469762e-01  5.24185704e-01 
 6.32500926e-11  9.27000000e-01  4.70497004e-01  4.57255827e-01  5.21816092e-01  5.83930771e-01  6.06655068e-01  5.95903758e-01  5.46036613e-01  5.25823938e-01 
 8.36979979e-11  9.27000000e-01  4.72442430e-01  4.59363659e-01  5.24011384e-01  5.86078173e-01  6.08712404e-01  5.98008507e-01  5.48089954e-01  5.27933284e-01 
 1.00000000e-10  9.27000000e-01  4.74807936e-01  4.61428436e-01  5.26049193e-01  5.88011022e-01  6.10588924e-01  5.99902758e-01  5.49970763e-01  5.29879262e-01 
 1.01337329e-10  9.27000000e-01  4.75158684e-01  4.61585231e-01  5.26206699e-01  5.88186014e-01  6.10762192e-01  6.00076561e-01  5.50125750e-01  5.30029937e-01 
 1.04011986e-10  9.27000000e-01  4.75957727e-01  4.62004490e-01  5.26595392e-01  5.88566750e-01  6.11140351e-01  6.00452326e-01  5.50489676e-01  5.30399617e-01 
 1.09361300e-10  9.27000000e-01  4.77527675e-01  4.62829149e-01  5.27362422e-01  5.89317967e-01  6.11886865e-01  6.01194086e-01  5.51207618e-01  5.31129618e-01 
 1.20059928e-10  9.27000000e-01  4.80610575e-01  4.64442970e-01  5.28860550e-01  5.90782942e-01  6.13341683e-01  6.02641037e-01  5.52610203e-01  5.32556431e-01 
 1.41457184e-10  9.27000000e-01  4.86709341e-01  4.67587088e-01  5.31762324e-01  5.93614392e-01  6.16152749e-01  6.05438640e-01  5.55324964e-01  5.35319986e-01 
 1.84251697e-10  9.27000000e-01  4.98600973e-01  4.73530069e-01  5.37181364e-01  5.98876963e-01  6.21369995e-01  6.10638922e-01  5.60385622e-01  5.40477637e-01 
 2.69840723e-10  9.27000000e-01  5.21917235e-01  4.84290877e-01  5.46683897e-01  6.08005386e-01  6.30396178e-01  6.19661304e-01  5.69222145e-01  5.49503231e-01 
 4.21398616e-10  9.27000000e-01  5.60309280e-01  5.00418588e-01  5.60063290e-01  6.20570257e-01  6.42786689e-01  6.32106815e-01  5.81592188e-01  5.62177394e-01 
 5.93563286e-10  9.27000000e-01  5.94918555e-01  5.15178077e-01  5.71716399e-01  6.31156721e-01  6.53256588e-01  6.42668549e-01  5.92347457e-01  5.73254344e-01 
 8.67923770e-10  9.27000000e-01  6.34598266e-01  5.34171589e-01  5.87351648e-01  6.44515990e-01  6.66533344e-01  6.56070660e-01  6.06603696e-01  5.88324631e-01 
 1.25403458e-09  9.27000000e-01  6.74830050e-01  5.55996550e-01  6.06440406e-01  6.60997402e-01  6.82464461e-01  6.72271415e-01  6.24852528e-01  6.06994240e-01 
 1.63953275e-09  9.27000000e-01  7.06801943e-01  5.73790170e-01  6.22731084e-01  6.76425428e-01  6.97430159e-01  6.87633462e-01  6.40653427e-01  6.22971544e-01 
 2.23717605e-09  9.27000000e-01  7.46474654e-01  5.95038953e-01  6.40703894e-01  6.94510238e-01  7.15803014e-01  7.05840789e-01  6.58554805e-01  6.40564016e-01 
 2.86270999e-09  9.27000000e-01  8.13678382e-01  6.13286465e-01  6.50324228e-01  7.04273231e-01  7.26211734e-01  7.16058434e-01  6.67483393e-01  6.49448698e-01 
 3.76049147e-09  9.27000000e-01  1.07131379e+00  6.48471439e-01  6.59623915e-01  7.09972991e-01  7.32442944e-01  7.22147049e-01  6.73182002e-01  6.56308217e-01 
 4.57356677e-09  9.27000000e-01  1.40644831e+00  6.82006238e-01  6.69290034e-01  7.15211248e-01  7.37613178e-01  7.27309702e-01  6.79546125e-01  6.63432849e-01 
 5.33495620e-09  9.27000000e-01  1.64184672e+00  6.69890915e-01  6.36333233e-01  6.77771161e-01  6.95237061e-01  6.87879062e-01  6.40984648e-01  6.26587995e-01 
 6.17255570e-09  9.27000000e-01  1.76101350e+00  5.47721390e-01  4.81558465e-01  5.00691893e-01  5.04883725e-01  5.04424105e-01  4.73721603e-01  4.68581837e-01 
 7.06144971e-09  9.27000000e-01  1.78405811e+00  3.53782358e-01  2.69009776e-01  2.64064896e-01  2.58470011e-01  2.62425909e-01  2.56120917e-01  2.59624836e-01 
 8.19526038e-09  9.27000000e-01  1.79181172e+00  1.74365534e-01  1.04061753e-01  9.56424898e-02  9.03060127e-02  9.35285292e-02  9.62502059e-02  1.00533862e-01 
 9.39264858e-09  9.27000000e-01  1.79541812e+00  7.32360684e-02  2.92977995e-02  2.47987517e-02  2.22288784e-02  2.37455736e-02  2.59955659e-02  2.91508166e-02 
 1.05656644e-08  9.27000000e-01  1.79779286e+00  2.95102592e-02  7.90176882e-03  6.09288521e-03  4.93277483e-03  5.10769438e-03  7.13700041e-03  8.66150133e-03 
 1.13969214e-08  9.27000000e-01  1.79865254e+00  1.57484139e-02  2.75571714e-03  2.23653485e-03  1.75235798e-03  1.68207958e-03  2.42612882e-03  3.34939709e-03 
 1.21570702e-08  9.27000000e-01  1.79947805e+00  9.02283891e-03  1.25114435e-03  1.19745036e-03  9.27713589e-04  9.13432996e-04  1.35215630e-03  1.81715211e-03 
 1.29956331e-08  9.27000000e-01  1.79957379e+00  4.75897343e-03  2.62177880e-04  2.65557319e-04  1.16646421e-04  8.82034473e-05  3.16497451e-04  6.27899752e-04 
 1.38978661e-08  9.27000000e-01  1.79984031e+00  2.48420658e-03  1.22125223e-04  2.66461150e-04  1.90263939e-04  1.73200644e-04  2.49639819e-04  3.62841514e-04 
 1.54920271e-08  9.27000000e-01  1.79989796e+00  6.65555474e-04 -8.19967695e-05 -9.10693255e-05 -1.41910866e-04 -1.51824231e-04 -9.10325439e-05 -1.71829516e-05 
 1.75348222e-08  9.27000000e-01  1.80000984e+00  1.67080674e-04  4.48984560e-05  8.39062999e-05  6.21201141e-05  6.47404438e-05  6.37769799e-05  5.16506095e-05 
 2.11058277e-08  9.27000000e-01  1.79999431e+00 -2.85902027e-06 -3.68475198e-05 -1.14217818e-04 -1.34479564e-04 -1.19623695e-04 -7.92135106e-05 -4.90158088e-05 
 2.44296850e-08  9.27000000e-01  1.80006025e+00  4.57764483e-05  3.90248847e-05  6.47502083e-05  6.69337824e-05  8.17024789e-05  6.76258861e-05  4.51432102e-05 
 2.76669108e-08  9.27000000e-01  1.80002331e+00  7.49087304e-07 -3.98548675e-05 -1.01691262e-04 -1.07196240e-04 -9.24990741e-05 -6.42401838e-05 -4.02905228e-05 
 3.07402787e-08  9.27000000e-01  1.80005012e+00  2.76435214e-05  2.28109213e-05  5.33877698e-05  6.41296369e-05  7.45104193e-05  5.62378862e-05  3.49756350e-05 
 3.43040089e-08  9.27000000e-01  1.80002548e+00 -4.19670767e-06 -3.88479001e-05 -8.96894370e-05 -8.89967367e-05 -7.84017356e-05 -5.44318502e-05 -3.24505115e-05 
 3.76512067e-08  9.27000000e-01  1.80002874e+00  1.37080041e-05  1.04233994e-05  4.50644510e-05  5.91586249e-05  6.55008313e-05  4.71709943e-05  2.76258245e-05 
 4.24764869e-08  9.27000000e-01  1.80001387e+00 -1.07443799e-05 -3.91943232e-05 -8.03143536e-05 -7.71369251e-05 -6.94988547e-05 -4.74070138e-05 -2.67646300e-05 
 4.74998423e-08  9.27000000e-01  1.80001207e+00  5.60139141e-06  6.06890680e-06  4.55249771e-05  5.98278849e-05  6.25435171e-05  4.37931827e-05  2.46423946e-05 
 5.47263984e-08  9.27000000e-01  1.79999847e+00 -1.50585776e-05 -3.65285605e-05 -7.03184643e-05 -6.85404828e-05 -6.39494324e-05 -4.34876711e-05 -2.39440606e-05 
 6.57296140e-08  9.27000000e-01  1.79999141e+00 -3.08253322e-09  7.15236949e-06  5.02074415e-05  6.09924118e-05  6.08047862e-05  4.18044773e-05  2.30362436e-05 
 8.37688031e-08  9.27000000e-01  1.79997644e+00 -1.70331387e-05 -2.92530238e-05 -6.05445879e-05 -6.35584196e-05 -6.11452569e-05 -4.15510628e-05 -2.25892637e-05 
 1.18028909e-07  9.27000000e-01  1.79996871e+00  1.74956307e-06  1.66280711e-05  5.63301161e-05  6.22518309e-05  6.05513692e-05  4.12849511e-05  2.25329135e-05 
 1.71487051e-07  9.27000000e-01  1.79996378e+00 -9.07946773e-06 -1.87694797e-05 -5.56909233e-05 -6.15542119e-05 -5.99821688e-05 -4.07796286e-05 -2.20741821e-05 
 2.50100000e-07  9.27000000e-01  1.79992155e+00  6.44703897e-06  1.87327396e-05  5.55389975e-05  6.13644283e-05  5.98387852e-05  4.07694532e-05  2.21706567e-05 
 2.50110000e-07  9.27000000e-01  1.80126820e+00  2.54288973e-04  1.58537115e-04  1.82849948e-04  1.94389587e-04  1.87173700e-04  1.61669086e-04  1.42611671e-04 
 2.50130000e-07  9.27000000e-01  1.80387160e+00  7.16267350e-04  4.15295474e-04  4.25867267e-04  4.52956706e-04  4.32746682e-04  3.92815049e-04  3.67804865e-04 
 2.50170000e-07  9.27000000e-01  1.80680963e+00  1.40654286e-03  9.52219119e-04  9.90922573e-04  1.07480348e-03  1.01646411e-03  9.35832650e-04  8.88299834e-04 
 2.50200000e-07  9.27000000e-01  1.80753121e+00  1.79729811e-03  1.38162880e-03  1.46319111e-03  1.60103694e-03  1.50515923e-03  1.38997605e-03  1.32390998e-03 
 2.50200565e-07  9.27000000e-01  1.80747382e+00  1.78996793e-03  1.38221819e-03  1.46495093e-03  1.60327341e-03  1.50696057e-03  1.39176410e-03  1.32573140e-03 
 2.50201694e-07  9.27000000e-01  1.80735602e+00  1.77533830e-03  1.38218809e-03  1.46691493e-03  1.60633088e-03  1.50931491e-03  1.39402314e-03  1.32805202e-03 
 2.50203953e-07  9.27000000e-01  1.80716655e+00  1.75604595e-03  1.38483711e-03  1.47275661e-03  1.61499333e-03  1.51671899e-03  1.40118515e-03  1.33538634e-03 
 2.50208471e-07  9.27000000e-01  1.80684461e+00  1.73219280e-03  1.39932357e-03  1.49307341e-03  1.64081829e-03  1.53982754e-03  1.42386456e-03  1.35840714e-03 
 2.50217507e-07  9.27000000e-01  1.80623632e+00  1.69176178e-03  1.42921298e-03  1.53268836e-03  1.68970676e-03  1.58281756e-03  1.46540953e-03  1.40015615e-03 
 2.50235579e-07  9.27000000e-01  1.80517981e+00  1.60738307e-03  1.45772268e-03  1.57140819e-03  1.73881035e-03  1.62266602e-03  1.50497664e-03  1.44167570e-03 
 2.50271723e-07  9.27000000e-01  1.80352896e+00  1.39360793e-03  1.38402568e-03  1.49195043e-03  1.65571107e-03  1.53762432e-03  1.43143056e-03  1.37847980e-03 
 2.50344010e-07  9.27000000e-01  1.80143602e+00  9.22081649e-04  1.02392076e-03  1.09312820e-03  1.21734992e-03  1.12726053e-03  1.05799288e-03  1.03113660e-03 
 2.50441628e-07  9.27000000e-01  1.79996951e+00  4.49157881e-04  5.82885721e-04  6.08348122e-04  6.80872957e-04  6.31018232e-04  6.01609452e-04  5.99954271e-04 
 2.50590260e-07  9.27000000e-01  1.79917650e+00  7.91306623e-05  1.89967215e-04  1.80822898e-04  2.04231159e-04  1.90093819e-04  1.93411616e-04  2.08929132e-04 
 2.50768384e-07  9.27000000e-01  1.79910174e+00 -1.20314726e-04 -6.37199565e-05 -9.15581248e-05 -1.00972019e-04 -9.35440839e-05 -7.08901135e-05 -4.88705255e-05 
 2.51115776e-07  9.27000000e-01  1.79941225e+00 -1.89284227e-04 -1.90019486e-04 -2.18904628e-04 -2.49683828e-04 -2.28968087e-04 -2.01356528e-04 -1.83932285e-04 
 2.51468003e-07  9.27000000e-01  1.79975021e+00 -3.16976001e-05 -3.08023278e-05 -3.84871209e-05 -6.03890982e-05 -4.35631447e-05 -3.29594190e-05 -2.94248624e-05 
 2.51961876e-07  9.27000000e-01  1.79989281e+00 -3.05776815e-05 -4.31556937e-05 -5.14019093e-05 -6.54943498e-05 -5.34667990e-05 -4.58395526e-05 -4.38404701e-05 
 2.52479913e-07  9.27000000e-01  1.79991074e+00 -1.47261732e-04 -1.77677619e-04 -1.92801212e-04 -2.08724703e-04 -1.96079314e-04 -1.84858107e-04 -1.78741936e-04 
 2.53131570e-07  9.27000000e-01  1.80027226e+00 -1.04411919e-04 -1.44387146e-04 -1.49093802e-04 -1.60004448e-04 -1.51986955e-04 -1.47805772e-04 -1.46182750e-04 
 2.53953646e-07  9.27000000e-01  1.80066040e+00 -3.78444803e-05 -7.62539603e-05 -7.46916688e-05 -7.77952250e-05 -7.58616594e-05 -7.72906295e-05 -7.84494817e-05 
 2.54691137e-07  9.27000000e-01  1.79593419e+00 -3.74151802e-04 -5.83817500e-05 -2.56580482e-05 -2.49658011e-05 -2.46222523e-05 -2.78375748e-05 -2.97504678e-05 
 2.55500528e-07  9.27000000e-01  1.78074469e+00 -1.30764115e-03 -9.95345303e-05 -8.05555901e-06 -5.77122226e-06 -6.14010487e-06 -8.31419288e-06 -9.84360526e-06 
 2.56243733e-07  9.27000000e-01  1.76040376e+00 -2.24025882e-03 -1.34821128e-04 -3.00575800e-06 -8.02099221e-07 -7.50702949e-07 -2.01920224e-06 -3.00506328e-06 
 2.57085979e-07  9.27000000e-01  1.76811004e+00 -5.49543237e-04  4.29558036e-05  3.38034613e-06  9.05001442e-07  7.91982646e-07  2.22360588e-07 -4.26873472e-07 
 2.57927417e-07  9.27000000e-01  1.79209096e+00  1.40828244e-03  1.57035172e-04  4.65654621e-06  1.92804128e-06  2.10781642e-06  1.88009571e-06  1.50717096e-06 
 2.59154210e-07  9.27000000e-01  1.80015498e+00  1.01172666e-03  3.90055122e-05 -1.60946101e-06 -7.81759252e-08 -1.35975010e-08  1.29000593e-08 -8.95852065e-08 
 2.61108214e-07  9.27000000e-01  1.79980093e+00  1.55133121e-04 -2.68278647e-05 -4.06929008e-07  7.82706268e-07  9.68912917e-07  9.73663108e-07  9.70779915e-07 
 2.63027835e-07  9.27000000e-01  1.79993896e+00  2.74454718e-05 -8.22225502e-06 -5.09807054e-07 -5.92350863e-07 -5.35308420e-07 -4.76948292e-07 -4.53712336e-07 
 2.66394054e-07  9.27000000e-01  1.79988449e+00 -1.87456318e-06  7.87485993e-07  1.97932175e-07  4.72576040e-07  6.16602554e-07  6.21924951e-07  6.33078758e-07 
 2.71050565e-07  9.27000000e-01  1.79991868e+00 -2.99582910e-06 -1.53161634e-06 -7.05775198e-07 -5.41260997e-07 -4.94642816e-07 -4.34817266e-07 -4.09251051e-07 
 2.80363586e-07  9.27000000e-01  1.79988709e+00  9.75288688e-07  2.91608257e-07  1.32726188e-07  3.69274486e-07  5.14263815e-07  5.39099536e-07  5.59028637e-07 
 2.98989628e-07  9.27000000e-01  1.79990871e+00 -3.75410641e-06 -1.59114069e-06 -7.41199205e-07 -5.77912292e-07 -4.97533086e-07 -4.20573012e-07 -3.87623515e-07 
 3.36241714e-07  9.27000000e-01  1.79988066e+00  4.57932861e-07 -1.97432969e-07 -1.45490804e-07  1.94490504e-07  4.20037602e-07  4.82471830e-07  5.21218751e-07 
 4.10745884e-07  9.27000000e-01  1.79990072e+00 -6.00982750e-06 -2.86035643e-06 -1.43189992e-06 -9.40492214e-07 -6.65983447e-07 -5.04196739e-07 -4.28288440e-07 
 5.00000000e-07  9.27000000e-01  1.79987161e+00 -1.58653084e-06 -1.04126349e-06 -4.56812966e-07  7.66685333e-08  3.78488686e-07  4.62301515e-07  5.09026039e-07 
 5.00010000e-07  9.27000000e-01  1.79984354e+00 -6.14716575e-05 -7.00556535e-05 -7.83670460e-05 -8.56651318e-05 -7.83958548e-05 -7.16541630e-05 -6.71725356e-05 
 5.00030000e-07  9.27000000e-01  1.79978922e+00 -1.83139934e-04 -2.11598057e-04 -2.37698115e-04 -2.63871693e-04 -2.40854669e-04 -2.20761226e-04 -2.07551536e-04 
 5.00070000e-07  9.27000000e-01  1.79970102e+00 -4.57645445e-04 -5.37399532e-04 -6.02727394e-04 -6.85122066e-04 -6.18615066e-04 -5.68617667e-04 -5.37828148e-04 
 5.00100000e-07  9.27000000e-01  1.79965480e+00 -6.73598536e-04 -7.93194574e-04 -8.87070410e-04 -1.01843623e-03 -9.11527688e-04 -8.38999104e-04 -7.96340381e-04 
 5.00104357e-07  9.27000000e-01  1.79967195e+00 -6.74522011e-04 -7.96141412e-04 -8.89133414e-04 -1.02439142e-03 -9.14474868e-04 -8.41917610e-04 -7.99787748e-04 
 5.00113071e-07  9.27000000e-01  1.79970355e+00 -6.77902153e-04 -8.03636501e-04 -8.95538263e-04 -1.03876490e-03 -9.23159057e-04 -8.50146830e-04 -8.08986368e-04 
 5.00130498e-07  9.27000000e-01  1.79974101e+00 -6.83370451e-04 -8.12083839e-04 -9.00368222e-04 -1.05550519e-03 -9.30771613e-04 -8.57388486e-04 -8.18588465e-04 
 5.00165353e-07  9.27000000e-01  1.79979442e+00 -6.34415644e-04 -7.52317672e-04 -8.24790303e-04 -9.84480319e-04 -8.54823695e-04 -7.87641480e-04 -7.56383110e-04 
 5.00235062e-07  9.27000000e-01  1.79987039e+00 -4.40163325e-04 -5.12557062e-04 -5.46212357e-04 -6.83149040e-04 -5.70684555e-04 -5.27703433e-04 -5.15289796e-04 
 5.00364223e-07  9.27000000e-01  1.79992588e+00 -1.40485364e-04 -1.45426657e-04 -1.34860926e-04 -2.17281775e-04 -1.47776594e-04 -1.38577906e-04 -1.48188417e-04 
 5.00577847e-07  9.27000000e-01  1.79993841e+00  4.69406631e-05  7.72184635e-05  1.01592519e-04  6.89147010e-05  9.93827176e-05  9.05553263e-05  7.36587697e-05 
 5.01005097e-07  9.27000000e-01  1.79988689e+00  1.46820797e-04  1.91833687e-04  2.13679769e-04  2.22080708e-04  2.20455171e-04  2.04505658e-04  1.90798569e-04 
 5.01504077e-07  9.27000000e-01  1.79958240e+00  9.58867910e-05  1.42935751e-04  1.53127550e-04  1.73677745e-04  1.59439550e-04  1.50952143e-04  1.46154298e-04 
 5.02034495e-07  9.27000000e-01  1.79923045e+00 -5.06978431e-05 -1.74002905e-05 -2.15098847e-05 -4.27919168e-06 -1.96875321e-05 -1.69366361e-05 -1.20278732e-05 
 5.02544837e-07  9.27000000e-01  1.79969095e+00 -1.00075960e-04 -1.29936578e-04 -1.43321071e-04 -1.31338867e-04 -1.45364353e-04 -1.38579720e-04 -1.29569709e-04 
 5.03150204e-07  9.27000000e-01  1.80099344e+00  8.14012989e-05 -1.46032964e-05 -1.86979410e-05 -3.85647638e-06 -1.88758330e-05 -2.28654478e-05 -2.06679084e-05 
 5.03767373e-07  9.27000000e-01  1.80003838e+00  7.93558193e-05  1.10611537e-04  1.28127646e-04  1.44775651e-04  1.32757145e-04  1.23895332e-04  1.20132219e-04 
 5.04516688e-07  9.27000000e-01  1.79442237e+00 -3.42938728e-04  6.06369507e-05  9.66082828e-05  1.06164229e-04  1.00416503e-04  9.71148680e-05  9.63874576e-05 
 5.05330138e-07  9.27000000e-01  1.79425240e+00 -1.62695592e-04  6.10618963e-05  6.59180168e-05  6.94663911e-05  6.78479674e-05  6.78336861e-05  6.83539790e-05 
 5.06115452e-07  9.27000000e-01  1.80167524e+00  4.54068996e-04  7.62323443e-05  3.15236766e-05  3.11591724e-05  3.08985604e-05  3.29057782e-05  3.41229742e-05 
 5.07273705e-07  9.27000000e-01  1.80028038e+00  7.08331977e-05  8.56446955e-06  1.40602025e-05  1.50368704e-05  1.53577735e-05  1.65572248e-05  1.73587548e-05 
 5.08465044e-07  9.27000000e-01  1.80096834e+00  8.61129563e-05  2.52255753e-06 -5.45230568e-07 -6.09991502e-07 -2.94971538e-07  8.76001286e-07  1.54381839e-06 
 5.10185118e-07  9.27000000e-01  1.80030325e+00 -3.20258487e-05 -5.28718781e-06  2.40683424e-06  3.28107366e-06  3.42665515e-06  3.34586093e-06  3.40784931e-06 
 5.12332135e-07  9.27000000e-01  1.80035020e+00 -3.72501725e-05 -4.88360623e-05 -5.30272343e-05 -5.35592140e-05 -5.25457292e-05 -5.03476280e-05 -4.92421471e-05 
 5.13883066e-07  9.27000000e-01  1.79995243e+00 -7.22089326e-05 -3.77733067e-05 -3.47913162e-05 -3.19491409e-05 -3.20109187e-05 -3.29841872e-05 -3.31248745e-05 
 5.15604244e-07  9.27000000e-01  1.80015258e+00 -4.42338247e-06 -9.56503533e-06 -1.01382916e-05 -9.64913654e-06 -9.59968462e-06 -1.02337856e-05 -1.06620439e-05 
 5.17411958e-07  9.27000000e-01  1.79997475e+00 -7.53246089e-06  7.15498691e-06  1.32440774e-05  1.18360279e-05  1.18065229e-05  1.11440774e-05  1.05776341e-05 
 5.19525547e-07  9.27000000e-01  1.80019009e+00  8.64042585e-06 -3.35026836e-06 -6.03274736e-06 -5.15534035e-06 -4.81663273e-06 -4.05147543e-06 -3.64145027e-06 
 5.21867027e-07  9.27000000e-01  1.79992751e+00 -2.68389054e-05 -1.03151786e-05 -6.89030138e-06 -6.77135376e-06 -6.47845446e-06 -6.47921546e-06 -6.45790421e-06 
 5.24198383e-07  9.27000000e-01  1.79998374e+00 -4.63375042e-06 -7.49386270e-06 -8.35940896e-06 -7.88401427e-06 -7.75159550e-06 -7.52368569e-06 -7.41923183e-06 
 5.28681389e-07  9.27000000e-01  1.79981541e+00 -1.25695575e-05 -7.24999549e-07  2.00572111e-06  2.48847218e-06  2.71035632e-06  2.44950475e-06  2.32693727e-06 
 5.34780552e-07  9.27000000e-01  1.79994642e+00  5.50469878e-06 -1.86691785e-06 -2.78754452e-06 -2.54787672e-06 -2.35515775e-06 -1.94508944e-06 -1.76221730e-06 
 5.43276282e-07  9.27000000e-01  1.79981785e+00 -1.22636550e-05 -1.24539605e-06  1.26925027e-06  1.78028887e-06  1.99041401e-06  1.76732831e-06  1.68427818e-06 
 5.60267744e-07  9.27000000e-01  1.79994403e+00  5.76109841e-06 -1.40163922e-06 -2.32043528e-06 -2.15224302e-06 -1.98286935e-06 -1.61080745e-06 -1.45566870e-06 
 5.85606623e-07  9.27000000e-01  1.79981692e+00 -1.16079691e-05 -1.05845878e-06  1.22700724e-06  1.67916692e-06  1.84776873e-06  1.62112324e-06  1.53982400e-06 
 6.36284381e-07  9.27000000e-01  1.79994119e+00  6.80277956e-06 -8.08839088e-07 -1.95894580e-06 -1.92213053e-06 -1.82141205e-06 -1.48676156e-06 -1.35224570e-06 
 7.26031477e-07  9.27000000e-01  1.79981396e+00 -9.91519980e-06 -3.34451212e-07  1.53330378e-06  1.80879377e-06  1.87809165e-06  1.61447186e-06  1.51567782e-06 
 7.50100000e-07  9.27000000e-01  1.79993885e+00  7.96165388e-06 -2.34130402e-07 -1.62194687e-06 -1.71224667e-06 -1.67762331e-06 -1.37771242e-06 -1.26211377e-06 
 7.50110000e-07  9.27000000e-01  1.79995083e+00  4.36906925e-05  4.19320756e-05  4.78944761e-05  5.35391782e-05  4.80498297e-05  4.45573554e-05  4.16048637e-05 
 7.50130000e-07  9.27000000e-01  1.79995881e+00  1.16637625e-04  1.29331119e-04  1.49288000e-04  1.68203002e-04  1.50515761e-04  1.38959366e-04  1.29846371e-04 
 7.50170000e-07  9.27000000e-01  1.80000482e+00  3.29107179e-04  3.85278768e-04  4.36942274e-04  5.01452376e-04  4.47966223e-04  4.11062702e-04  3.86967349e-04 
 7.50200000e-07  9.27000000e-01  1.80003753e+00  5.28730346e-04  6.27916851e-04  7.06904728e-04  8.16685520e-04  7.28411730e-04  6.67871451e-04  6.31525041e-04 
 7.50200813e-07  9.27000000e-01  1.80003529e+00  5.30195539e-04  6.29902551e-04  7.08791471e-04  8.19192279e-04  7.30396273e-04  6.69726110e-04  6.33387694e-04 
 7.50202438e-07  9.27000000e-01  1.80003103e+00  5.32562380e-04  6.33293708e-04  7.12144941e-04  8.23916686e-04  7.34084106e-04  6.73061436e-04  6.36710233e-04 
 7.50205689e-07  9.27000000e-01  1.80002474e+00  5.39625042e-04  6.42989845e-04  7.22378279e-04  8.37359168e-04  7.45329161e-04  6.83335696e-04  6.46903254e-04 
 7.50212191e-07  9.27000000e-01  1.80001527e+00  5.57878095e-04  6.66601974e-04  7.47237135e-04  8.68469603e-04  7.72000997e-04  7.07976949e-04  6.71288264e-04 
 7.50225195e-07  9.27000000e-01  1.79999829e+00  5.88839108e-04  7.06019065e-04  7.88155353e-04  9.19824612e-04  8.15513324e-04  7.48019410e-04  7.11074843e-04 
 7.50251203e-07  9.27000000e-01  1.79996752e+00  6.14966889e-04  7.38678194e-04  8.17949252e-04  9.59565097e-04  8.47698997e-04  7.78598460e-04  7.43755905e-04 
 7.50303220e-07  9.27000000e-01  1.79991236e+00  5.48288143e-04  6.54296172e-04  7.11873444e-04  8.41876251e-04  7.39780929e-04  6.82859246e-04  6.59206479e-04 
 7.50407252e-07  9.27000000e-01  1.79984526e+00  3.15165730e-04  3.66005629e-04  3.80277207e-04  4.61772587e-04  3.99092867e-04  3.73207048e-04  3.71159325e-04 
 7.50615317e-07  9.27000000e-01  1.79981236e+00  2.30775295e-05  1.03517715e-05 -1.14388756e-05  6.18832088e-06 -7.26442632e-06 -1.22773425e-07  1.49613334e-05 
 7.50972065e-07  9.27000000e-01  1.79981538e+00 -1.06594923e-04 -1.39071683e-04 -1.60709659e-04 -1.80474914e-04 -1.67464650e-04 -1.49409333e-04 -1.36724711e-04 
 7.51347049e-07  9.27000000e-01  1.79992106e+00 -1.41809437e-05 -2.84222330e-05 -3.18387912e-05 -5.29110363e-05 -3.67847090e-05 -2.88690867e-05 -2.80203225e-05 
 7.51824669e-07  9.27000000e-01  1.80009421e+00  8.72935644e-05  8.24302580e-05  8.63198249e-05  7.62449107e-05  8.71907099e-05  8.58761560e-05  8.10425509e-05 
 7.52355875e-07  9.27000000e-01  1.80016836e+00 -4.97191868e-05 -8.49748256e-05 -9.81113227e-05 -1.10563070e-04 -9.92385396e-05 -9.09948471e-05 -8.71939395e-05 
 7.53080646e-07  9.27000000e-01  1.79989370e+00 -1.39707193e-04 -1.50780391e-04 -1.56542301e-04 -1.69688890e-04 -1.59712353e-04 -1.52955047e-04 -1.49687892e-04 
 7.53920776e-07  9.27000000e-01  1.79799338e+00 -1.90952969e-04 -5.47367561e-05 -3.85506572e-05 -4.24340101e-05 -3.99206310e-05 -4.16613087e-05 -4.37009961e-05 
 7.54680124e-07  9.27000000e-01  1.80768998e+00  6.34260697e-04  4.19313444e-05 -8.74334989e-06 -1.11923744e-05 -1.03840896e-05 -1.26055557e-05 -1.42544892e-05 
 7.55560867e-07  9.27000000e-01  1.81156266e+00  5.78683343e-04  3.82985242e-05  1.82511544e-05  1.90114235e-05  1.88313284e-05  1.66612974e-05  1.49630468e-05 
 7.56327246e-07  9.27000000e-01  1.80476391e+00 -1.77865764e-04 -3.24681943e-05  5.49251859e-06  6.71171082e-06  6.98566100e-06  6.59279410e-06  6.13085054e-06 
 7.57129413e-07  9.27000000e-01  1.80154080e+00 -3.08862640e-04 -1.76560951e-05  1.24906373e-05  1.30016564e-05  1.30315835e-05  1.25042254e-05  1.19931919e-05 
 7.58006633e-07  9.27000000e-01  1.80039028e+00 -2.39324084e-04 -8.27098067e-06  3.17751678e-06  2.86755630e-06  3.11934109e-06  3.46139267e-06  3.56646227e-06 
 7.59004981e-07  9.27000000e-01  1.79990650e+00 -1.38466516e-04  4.16682406e-06  5.26253329e-06  5.02260799e-06  5.09018685e-06  5.04289389e-06  4.97132690e-06 
 7.60854401e-07  9.27000000e-01  1.79977154e+00 -3.44176153e-05  2.99499880e-06 -7.68934454e-07 -8.34032715e-07 -6.96721801e-07 -4.17591912e-07 -2.43592998e-07 
 7.63367049e-07  9.27000000e-01  1.79973787e+00 -2.80093173e-06  1.80476798e-06  1.36647676e-06  1.49212145e-06  1.48658112e-06  1.35698045e-06  1.28577293e-06 
 7.66629995e-07  9.27000000e-01  1.79976639e+00  4.54786761e-08 -1.28451549e-06 -1.29017997e-06 -1.22690218e-06 -1.13808775e-06 -9.74227711e-07 -8.76666100e-07 
 7.72914216e-07  9.27000000e-01  1.79973936e+00 -1.47473159e-06  7.23869221e-07  1.13858940e-06  1.21922482e-06  1.21334117e-06  1.08780183e-06  1.01017841e-06 
 7.85482658e-07  9.27000000e-01  1.79976489e+00  9.99467011e-08 -1.06743815e-06 -1.16576432e-06 -1.10658606e-06 -1.02531124e-06 -8.71163057e-07 -7.79719857e-07 
 8.07299578e-07  9.27000000e-01  1.79973942e+00 -1.27015599e-06  7.26802555e-07  1.11812009e-06  1.17991870e-06  1.16625485e-06  1.04087769e-06  9.63943113e-07 
 8.50933417e-07  9.27000000e-01  1.79976371e+00  3.89389301e-07 -9.18335921e-07 -1.08419487e-06 -1.04988679e-06 -9.83906770e-07 -8.37878656e-07 -7.50720359e-07 
 9.38201095e-07  9.27000000e-01  1.79973844e+00 -8.53758970e-07  8.69499187e-07  1.17688919e-06  1.20157343e-06  1.16822644e-06  1.03582078e-06  9.55455626e-07 
 1.00000000e-06  9.27000000e-01  1.79976268e+00  7.06514991e-07 -7.82789145e-07 -1.01652451e-06 -1.00979161e-06 -9.59502879e-07 -8.20670312e-07 -7.37176106e-07 
 1.00001000e-06  9.27000000e-01  1.79973895e+00 -5.46952324e-05 -6.55950458e-05 -7.47671563e-05 -8.28952269e-05 -7.61474258e-05 -6.97894317e-05 -6.54510930e-05 
 1.00003000e-06  9.27000000e-01  1.79969330e+00 -1.70304355e-04 -2.01890626e-04 -2.28947616e-04 -2.56559424e-04 -2.34085397e-04 -2.14771978e-04 -2.01858232e-04 
 1.00007000e-06  9.27000000e-01  1.79961967e+00 -4.44575713e-04 -5.29604318e-04 -5.96120605e-04 -6.80621598e-04 -6.13169967e-04 -5.63116179e-04 -5.32236761e-04 
 1.00010000e-06  9.27000000e-01  1.79958030e+00 -6.62508117e-04 -7.89227945e-04 -8.85200514e-04 -1.01957529e-03 -9.10820074e-04 -8.37478270e-04 -7.94366914e-04 
 1.00010433e-06  9.27000000e-01  1.79958971e+00 -6.67100227e-04 -7.95566209e-04 -8.90919809e-04 -1.02932257e-03 -9.17370642e-04 -8.43608379e-04 -8.00864247e-04 
 1.00011298e-06  9.27000000e-01  1.79960602e+00 -6.76968380e-04 -8.08909625e-04 -9.03448524e-04 -1.04985192e-03 -9.31866701e-04 -8.57003839e-04 -8.14962252e-04 
 1.00013030e-06  9.27000000e-01  1.79962943e+00 -6.87443214e-04 -8.21794764e-04 -9.12760796e-04 -1.07085762e-03 -9.43486605e-04 -8.67819956e-04 -8.27968560e-04 
 1.00016492e-06  9.27000000e-01  1.79966977e+00 -6.41978025e-04 -7.65142798e-04 -8.40901915e-04 -1.00371725e-03 -8.71943094e-04 -8.02383812e-04 -7.70103403e-04 
 1.00023417e-06  9.27000000e-01  1.79973129e+00 -4.44313707e-04 -5.19457641e-04 -5.55110887e-04 -6.93828855e-04 -5.80723391e-04 -5.36791411e-04 -5.24126823e-04 
 1.00036297e-06  9.27000000e-01  1.79978901e+00 -1.33703114e-04 -1.39505659e-04 -1.28695286e-04 -2.10586476e-04 -1.42170187e-04 -1.34096397e-04 -1.44418551e-04 
 1.00057506e-06  9.27000000e-01  1.79981568e+00  5.60013310e-05  8.21783024e-05  1.06246725e-04  7.40816429e-05  1.03567192e-04  9.38080738e-05  7.65363481e-05 
 1.00099925e-06  9.27000000e-01  1.79976937e+00  1.54237571e-04  1.90418467e-04  2.10350458e-04  2.17835465e-04  2.16334277e-04  2.00746402e-04  1.87243351e-04 
 1.00149641e-06  9.27000000e-01  1.79942772e+00  9.85648213e-05  1.51675383e-04  1.62179874e-04  1.82234297e-04  1.67716827e-04  1.58568848e-04  1.53371550e-04 
 1.00202516e-06  9.27000000e-01  1.79899390e+00 -7.51328650e-05 -1.22654056e-06 -2.68918378e-06  1.44202189e-05 -1.32460915e-06  5.60383089e-07  4.97805597e-06 
 1.00253195e-06  9.27000000e-01  1.79933633e+00 -1.47680308e-04 -1.35031211e-04 -1.48523272e-04 -1.37255455e-04 -1.51120279e-04 -1.43396572e-04 -1.33983395e-04 
 1.00313703e-06  9.27000000e-01  1.80025103e+00  2.25003675e-04 -8.81407650e-05 -1.13280753e-04 -1.01475033e-04 -1.14865951e-04 -1.13248955e-04 -1.08253065e-04 
 1.00369888e-06  9.27000000e-01  1.79939711e+00  8.13496646e-04  6.44994559e-05  3.62164451e-05  5.05475083e-05  3.79826862e-05  3.10388435e-05  2.86630417e-05 
 1.00448111e-06  9.27000000e-01  1.79406144e+00  2.48084676e-04  3.46308167e-05  6.40973513e-05  7.51205853e-05  6.86085211e-05  6.34657949e-05  6.19733705e-05 
 1.00521590e-06  9.27000000e-01  1.78923208e+00 -1.87106223e-03 -9.32984510e-05  3.83535128e-05  4.53366428e-05  4.27104020e-05  4.12038683e-05  4.11000822e-05 
 1.00588453e-06  9.27000000e-01  1.79667275e+00 -2.82879674e-03 -7.95222405e-05  2.16884764e-05  2.38419947e-05  2.28436020e-05  2.33204978e-05  2.37987595e-05 
 1.00672538e-06  9.27000000e-01  1.79987736e+00 -4.19919653e-03 -9.95680017e-05  9.82130884e-06  1.04950128e-05  1.01868570e-05  1.08648816e-05  1.13712350e-05 
 1.00756105e-06  9.27000000e-01  1.79970463e+00 -5.83462261e-03 -1.23634315e-04  6.15688821e-06  6.77421243e-06  6.76363626e-06  7.37485021e-06  7.73449600e-06 
 1.00836544e-06  9.27000000e-01  1.79974675e+00 -7.62206026e-03 -1.50965059e-04 -5.94087580e-07 -1.82619478e-07 -1.53903144e-07  3.35329100e-07  6.74532560e-07 
 1.00919746e-06  9.27000000e-01  1.79971993e+00 -1.04312687e-02 -2.04846329e-04  4.03569263e-06  5.58479015e-06  5.55173063e-06  5.54204511e-06  5.57587818e-06 
 1.01029436e-06  9.27000000e-01  1.79957886e+00 -1.67060219e-02 -3.62239866e-04 -4.88805142e-06 -1.96085294e-06 -1.87334223e-06 -1.57046397e-06 -1.37623059e-06 
 1.01170103e-06  9.27000000e-01  1.80032978e+00 -6.97092923e-03  3.42152127e-04  1.28195161e-05  1.69583210e-06  1.66432710e-06  1.59568148e-06  1.54505726e-06 
 1.01391330e-06  9.27000000e-01  1.80539454e+00  1.91920328e-01  6.86219494e-03  8.35670234e-05 -1.21539549e-06 -1.25265566e-06 -1.12214866e-06 -1.26197571e-06 
 1.01598023e-06  9.27000000e-01  1.81049392e+00  6.21718744e-01  1.55896620e-02  1.17141103e-04  2.86177898e-06  2.55579253e-06  2.34446233e-06  1.85759210e-06 
 1.01778619e-06  9.27000000e-01  1.81440023e+00  1.18359720e+00  2.31281446e-02  1.27413669e-04  1.33622442e-05  1.10145458e-05  8.07552478e-06  5.70029278e-06 
 1.01927734e-06  9.27000000e-01  1.81323207e+00  1.65411110e+00  2.42605433e-02  1.58390493e-04  1.18934001e-04  1.01108399e-04  7.67096644e-05  5.80846776e-05 
 1.02035564e-06  9.27000000e-01  1.80512487e+00  1.80556222e+00  1.57281278e-02  9.84101952e-05  2.21640765e-04  1.81519613e-04  1.33281885e-04  9.28225722e-05 
 1.02151315e-06  9.27000000e-01  1.79835605e+00  1.78349947e+00  4.30901312e-03 -7.92050377e-06  1.84835010e-04  1.30439202e-04  7.95034438e-05  3.66242829e-05 
 1.02257147e-06  9.27000000e-01  1.79964868e+00  1.77071986e+00  1.20580865e-03  4.13722072e-05  1.13141988e-04  5.71311366e-05  1.55784665e-05 -1.25591678e-05 
 1.02371280e-06  9.27000000e-01  1.80069785e+00  1.78738979e+00  1.23983074e-03  9.13347321e-05  7.26022845e-05  2.08932996e-05 -9.31359676e-06 -2.07583860e-05 
 1.02496953e-06  9.27000000e-01  1.80037249e+00  1.80190756e+00  1.05972721e-03  7.24748588e-05  3.27100660e-05 -1.02983729e-05 -2.72037039e-05 -2.47474785e-05 
 1.02688862e-06  9.27000000e-01  1.79966933e+00  1.79965948e+00  6.89863848e-05  3.31165004e-05  2.96471887e-06 -2.56611252e-05 -2.72743161e-05 -1.57025548e-05 
 1.02870043e-06  9.27000000e-01  1.80002103e+00  1.80021726e+00  8.79785192e-05  1.58051583e-05 -2.21958020e-05 -3.71298828e-05 -2.88483219e-05 -1.52364400e-05 
 1.03222273e-06  9.27000000e-01  1.79982535e+00  1.80025690e+00  5.61749779e-06 -9.11268606e-06 -3.11567002e-05 -2.80081083e-05 -1.38609447e-05 -4.14717212e-06 
 1.03609134e-06  9.27000000e-01  1.79993277e+00  1.79992080e+00  2.72747455e-06 -2.46193563e-05 -3.55094227e-05 -2.29216924e-05 -1.04261440e-05 -5.18486629e-06 
 1.04003324e-06  9.27000000e-01  1.79986650e+00  1.80034707e+00 -5.81823016e-06 -2.58053036e-05 -2.55371808e-05 -1.09633416e-05 -2.79203338e-06 -2.31759010e-07 
 1.04292048e-06  9.27000000e-01  1.79988340e+00  1.79978246e+00 -2.67872416e-05 -2.96166233e-05 -2.54326918e-05 -1.16327856e-05 -5.29681876e-06 -3.29543565e-06 
 1.04601825e-06  9.27000000e-01  1.79989697e+00  1.80039128e+00 -2.74742254e-06 -2.49771317e-05 -1.70922522e-05 -5.40948161e-06 -1.09657891e-06  1.34860194e-07 
 1.04857836e-06  9.27000000e-01  1.79985628e+00  1.79973596e+00 -3.84298486e-05 -2.74953816e-05 -1.77527832e-05 -8.06771435e-06 -4.33065388e-06 -3.12212713e-06 
 1.05078052e-06  9.27000000e-01  1.79990838e+00  1.80037472e+00 -8.44237496e-07 -2.22769663e-05 -1.21221137e-05 -6.01280040e-06 -2.86714272e-06 -1.88061184e-06 
 1.05314424e-06  9.27000000e-01  1.79985197e+00  1.79975237e+00 -4.08843359e-05 -2.37888937e-05 -1.25124234e-05 -1.63318809e-06  8.90454885e-08  6.07216723e-07 
 1.05705800e-06  9.27000000e-01  1.80004444e+00  1.80038081e+00  6.29215167e-06 -1.04556749e-05 -7.82160506e-07  1.27636484e-04  1.07738774e-04  9.90896743e-05 
 1.06067060e-06  9.27000000e-01  1.79988525e+00  1.79975828e+00 -4.65930783e-05 -2.57030983e-05 -1.31583249e-05  7.25480182e-05  6.31481895e-05  5.91678314e-05 
 1.06391887e-06  9.27000000e-01  1.79988868e+00  1.80028822e+00 -7.89527653e-06 -1.92746580e-05 -1.15820214e-05 -2.59115595e-05 -2.00977703e-05 -1.81405323e-05 
 1.06727150e-06  9.27000000e-01  1.79985814e+00  1.79978688e+00 -2.93997135e-05 -6.78934174e-06  4.05485978e-06  1.09255406e-05  9.53003142e-06  9.20496495e-06 
 1.07140119e-06  9.27000000e-01  1.79989903e+00  1.80025525e+00 -7.48335269e-06 -1.71713277e-05 -1.14457407e-05 -9.90115716e-06 -7.99666317e-06 -7.39107644e-06 
 1.07852390e-06  9.27000000e-01  1.79985278e+00  1.79979417e+00 -2.59426346e-05 -2.16657242e-06  5.64546431e-06  7.38750616e-06  6.70659420e-06  6.52446947e-06 
 1.08679109e-06  9.27000000e-01  1.79989954e+00  1.80023152e+00 -1.60696869e-06 -1.05881288e-05 -8.31537855e-06 -7.50380463e-06 -6.37967008e-06 -5.99003436e-06 
 1.09378389e-06  9.27000000e-01  1.79985130e+00  1.79979817e+00 -2.09522235e-05  1.46107844e-06  6.15912933e-06  6.51961328e-06  5.80813318e-06  5.53888050e-06 
 1.10237419e-06  9.27000000e-01  1.79989977e+00  1.80021510e+00  4.00991027e-06 -6.24770778e-06 -6.15254089e-06 -5.89377072e-06 -5.18814421e-06 -4.92419069e-06 
 1.11170616e-06  9.27000000e-01  1.79985137e+00  1.79980440e+00 -1.62758722e-05  3.38478290e-06  5.94397684e-06  5.82193528e-06  5.10848909e-06  4.81353043e-06 
 1.12675942e-06  9.27000000e-01  1.79989950e+00  1.80020302e+00  8.65839545e-06 -4.06164188e-06 -5.34826499e-06 -5.31076332e-06 -4.67205689e-06 -4.39362796e-06 
 1.14969292e-06  9.27000000e-01  1.79985108e+00  1.79979584e+00 -1.32266709e-05  3.31668442e-06  5.06959739e-06  5.15200881e-06  4.61755214e-06  4.39736026e-06 
 1.19017537e-06  9.27000000e-01  1.79989835e+00  1.80014916e+00  1.03419188e-05 -4.09712969e-06 -5.30763073e-06 -5.12510930e-06 -4.46690847e-06 -4.18438253e-06 
 1.25010000e-06  9.27000000e-01  1.79984968e+00  1.79972820e+00 -1.30354149e-05  2.77041485e-06  4.72817902e-06  4.91109696e-06  4.43180200e-06  4.23759365e-06 
 1.25011000e-06  9.27000000e-01  1.79988131e+00  1.79991342e+00  4.42565753e-05  5.40868360e-05  6.09803561e-05  5.55227002e-05  5.11857679e-05  4.78802456e-05 
 1.25013000e-06  9.27000000e-01  1.79994842e+00  1.80021166e+00  1.49828121e-04  1.56383134e-04  1.75740023e-04  1.57990191e-04  1.45640295e-04  1.36182230e-04 
 1.25017000e-06  9.27000000e-01  1.80002644e+00  1.80057811e+00  4.13479313e-04  4.42482846e-04  5.06915106e-04  4.53484356e-04  4.16036251e-04  3.91719786e-04 
 1.25020000e-06  9.27000000e-01  1.80004900e+00  1.80075900e+00  6.51056863e-04  7.10826526e-04  8.20371590e-04  7.32212551e-04  6.71330178e-04  6.34885197e-04 
 1.25020083e-06  9.27000000e-01  1.80004688e+00  1.80075632e+00  6.52405161e-04  7.12647011e-04  8.22853578e-04  7.34163659e-04  6.73162536e-04  6.36736153e-04 
 1.25020248e-06  9.27000000e-01  1.80004157e+00  1.80074595e+00  6.54200734e-04  7.15905390e-04  8.27578852e-04  7.37832130e-04  6.76501844e-04  6.40083660e-04 
 1.25020579e-06  9.27000000e-01  1.80003105e+00  1.80071853e+00  6.60628914e-04  7.26153334e-04  8.41209385e-04  7.49207424e-04  6.86933011e-04  6.50445883e-04 
 1.25021240e-06  9.27000000e-01  1.80001398e+00  1.80067058e+00  6.78890843e-04  7.51036194e-04  8.72618369e-04  7.76053041e-04  7.11760545e-04  6.75019120e-04 
 1.25022563e-06  9.27000000e-01  1.79998422e+00  1.80057978e+00  7.08275487e-04  7.91377745e-04  9.23801755e-04  8.19213111e-04  7.51526478e-04  7.14590239e-04 
 1.25025209e-06  9.27000000e-01  1.79993768e+00  1.80042359e+00  7.25685955e-04  8.18720382e-04  9.61334681e-04  8.49146788e-04  7.80083885e-04  7.45399289e-04 
 1.25030500e-06  9.27000000e-01  1.79987626e+00  1.80019091e+00  6.26690783e-04  7.06603206e-04  8.37121400e-04  7.35184475e-04  6.78821581e-04  6.55644593e-04 
 1.25041083e-06  9.27000000e-01  1.79982576e+00  1.79993795e+00  3.37300749e-04  3.70194720e-04  4.51214080e-04  3.89501073e-04  3.64560283e-04  3.63115085e-04 
 1.25062249e-06  9.27000000e-01  1.79981703e+00  1.79979519e+00 -3.35289725e-06 -1.97273715e-05 -3.02122617e-06 -1.52989069e-05 -7.50336981e-06  7.77874015e-06 
 1.25097732e-06  9.27000000e-01  1.79982682e+00  1.79983747e+00 -1.34947491e-04 -1.60881679e-04 -1.80655181e-04 -1.67298809e-04 -1.49219093e-04 -1.36631279e-04 
 1.25135186e-06  9.27000000e-01  1.79989742e+00  1.79997779e+00 -2.20474921e-05 -3.02236168e-05 -5.10282320e-05 -3.47198361e-05 -2.69169272e-05 -2.61727408e-05 
 1.25182446e-06  9.27000000e-01  1.80004696e+00  1.80003058e+00  8.27978230e-05  8.61392509e-05  7.64509451e-05  8.75304610e-05  8.62701843e-05  8.14568058e-05 
 1.25235854e-06  9.27000000e-01  1.80013322e+00  1.79989516e+00 -8.59093060e-05 -9.96999137e-05 -1.11785112e-04 -1.00298752e-04 -9.19381891e-05 -8.80617618e-05 
 1.25303799e-06  9.27000000e-01  1.80013830e+00  1.79973147e+00 -1.55531222e-04 -1.58297919e-04 -1.71212469e-04 -1.60808629e-04 -1.53698936e-04 -1.50242862e-04 
 1.25389027e-06  9.27000000e-01  1.79976725e+00  1.79828943e+00 -1.27806598e-04 -4.38454063e-05 -4.62685575e-05 -4.34039514e-05 -4.48720216e-05 -4.67640153e-05 
 1.25461507e-06  9.27000000e-01  1.80019296e+00  1.80632264e+00  3.70900049e-04 -3.90933973e-06 -1.42639420e-05 -1.31405622e-05 -1.52231989e-05 -1.68226024e-05 
 1.25543595e-06  9.27000000e-01  1.79998841e+00  1.80862792e+00  2.80184171e-04  1.64182052e-05  1.67380645e-05  1.67756799e-05  1.45867202e-05  1.28767220e-05 
 1.25621604e-06  9.27000000e-01  1.79946595e+00  1.80092573e+00 -2.54130159e-04 -2.45079907e-06  7.95799880e-06  8.36705983e-06  7.87742910e-06  7.34988122e-06 
 1.25703151e-06  9.27000000e-01  1.79979662e+00  1.79946899e+00 -1.67739701e-04  9.07157257e-06  1.16726373e-05  1.19480291e-05  1.15857888e-05  1.11389520e-05 
 1.25827447e-06  9.27000000e-01  1.79991671e+00  1.80014719e+00 -2.41211528e-05  3.73408140e-06  2.13325258e-06  2.55014109e-06  2.99590656e-06  3.18558176e-06 
 1.25954809e-06  9.27000000e-01  1.79984297e+00  1.79972493e+00 -2.25095295e-05  3.25786338e-06  3.27545626e-06  3.57624661e-06  3.69336345e-06  3.72485098e-06 
 1.26154380e-06  9.27000000e-01  1.79989721e+00  1.80001848e+00  6.69319705e-06 -1.45722743e-06 -1.47753863e-06 -1.15678137e-06 -8.15188185e-07 -5.97410110e-07 
 1.26420749e-06  9.27000000e-01  1.79985340e+00  1.79979757e+00 -8.74670680e-06 -1.01635641e-07  7.62975000e-07  1.03329025e-06  1.06076737e-06  1.05933177e-06 
 1.26783597e-06  9.27000000e-01  1.79989037e+00  1.79998336e+00  4.20980604e-06 -1.92574074e-06 -1.63377147e-06 -1.31534933e-06 -1.04431711e-06 -8.88225782e-07 
 1.27509294e-06  9.27000000e-01  1.79985680e+00  1.79981712e+00 -7.90131945e-06 -3.87006640e-07  5.19931761e-07  8.30720940e-07  8.76843802e-07  8.78562928e-07 
 1.28857198e-06  9.27000000e-01  1.79988811e+00  1.79997183e+00  3.20447470e-06 -2.07563370e-06 -1.62011171e-06 -1.25968105e-06 -9.80470267e-07 -8.21684140e-07 
 1.31182593e-06  9.27000000e-01  1.79985684e+00  1.79981764e+00 -8.10232360e-06 -6.09825986e-07  4.35391700e-07  7.75727170e-07  8.32342349e-07  8.37924164e-07 
 1.35769181e-06  9.27000000e-01  1.79988647e+00  1.79996131e+00  3.06436291e-06 -1.86334745e-06 -1.42802339e-06 -1.14339737e-06 -9.07986649e-07 -7.73432333e-07 
 1.44942356e-06  9.27000000e-01  1.79985666e+00  1.79980656e+00 -6.19370549e-06  5.08932116e-07  1.00465499e-06  1.05020019e-06  9.68287913e-07  9.05204092e-07 
 1.50000000e-06  9.27000000e-01  1.79988715e+00  1.79995109e+00  5.32167506e-06 -6.33027594e-07 -8.51682773e-07 -8.60196033e-07 -7.59663073e-07 -6.90516449e-07 
 1.50001000e-06  9.27000000e-01  1.79985366e+00  1.79983388e+00 -6.48056146e-05 -7.44496292e-05 -8.25075884e-05 -7.58954918e-05 -6.95314908e-05 -6.51929623e-05 
 1.50003000e-06  9.27000000e-01  1.79979859e+00  1.79960963e+00 -2.08904044e-04 -2.28376580e-04 -2.55502264e-04 -2.33342389e-04 -2.13999839e-04 -2.01100579e-04 
 1.50007000e-06  9.27000000e-01  1.79973203e+00  1.79927793e+00 -5.38176520e-04 -5.94921745e-04 -6.78677242e-04 -6.11817525e-04 -5.61803797e-04 -5.30979564e-04 
 1.50010000e-06  9.27000000e-01  1.79970337e+00  1.79910599e+00 -7.92824201e-04 -8.83838576e-04 -1.01748358e-03 -9.09320318e-04 -8.36054794e-04 -7.93002172e-04 
 1.50010433e-06  9.27000000e-01  1.79971703e+00  1.79913331e+00 -7.96086793e-04 -8.89499914e-04 -1.02728420e-03 -9.15882766e-04 -8.42226009e-04 -7.99557250e-04 
 1.50011299e-06  9.27000000e-01  1.79974213e+00  1.79919395e+00 -8.03701568e-04 -9.02030098e-04 -1.04805571e-03 -9.30533385e-04 -8.55798911e-04 -8.13834876e-04 
 1.50013030e-06  9.27000000e-01  1.79977922e+00  1.79930160e+00 -8.08863234e-04 -9.11472869e-04 -1.06958254e-03 -9.42473320e-04 -8.66922849e-04 -8.27130743e-04 
 1.50016493e-06  9.27000000e-01  1.79983332e+00  1.79946996e+00 -7.44969801e-04 -8.39890984e-04 -1.00310917e-03 -8.71282254e-04 -8.01858417e-04 -7.69653047e-04 
 1.50023419e-06  9.27000000e-01  1.79989438e+00  1.79968840e+00 -5.02067072e-04 -5.54950879e-04 -6.94291916e-04 -5.80823191e-04 -5.36880963e-04 -5.24208265e-04 
 1.50035993e-06  9.27000000e-01  1.79992815e+00  1.79987179e+00 -1.40624979e-04 -1.36291973e-04 -2.19564509e-04 -1.50136909e-04 -1.41480122e-04 -1.51444772e-04 
 1.50056036e-06  9.27000000e-01  1.79992791e+00  1.79995734e+00  7.11530370e-05  9.60763184e-05  6.13993483e-05  9.28177112e-05  8.38262043e-05  6.67506024e-05 
 1.50096122e-06  9.27000000e-01  1.79989637e+00  1.79999027e+00  1.82535064e-04  2.07192559e-04  2.12678434e-04  2.12924628e-04  1.97282636e-04  1.83222246e-04 
 1.50145526e-06  9.27000000e-01  1.79964711e+00  1.79985558e+00  1.51565202e-04  1.70725300e-04  1.90667651e-04  1.76630955e-04  1.66744146e-04  1.60814255e-04 
 1.50198474e-06  9.27000000e-01  1.79932910e+00  1.79955682e+00 -1.44599534e-06  9.85516579e-06  2.76033211e-05  1.17250914e-05  1.28735707e-05  1.66782743e-05 
 1.50245339e-06  9.27000000e-01  1.79949643e+00  1.79966846e+00 -1.17933283e-04 -1.33331408e-04 -1.21593982e-04 -1.35785228e-04 -1.28468476e-04 -1.19339795e-04 
 1.50302812e-06  9.27000000e-01  1.79999941e+00  1.80119453e+00 -3.78649507e-05 -1.33910629e-04 -1.24457359e-04 -1.37784657e-04 -1.34341632e-04 -1.28032170e-04 
 1.50356376e-06  9.27000000e-01  1.80014926e+00  1.80180415e+00  8.50617138e-05  1.09200734e-05  2.49392124e-05  1.18582316e-05  6.02531482e-06  4.65824573e-06 
 1.50423314e-06  9.27000000e-01  1.79980984e+00  1.79809009e+00 -9.89566035e-05  6.37191467e-05  8.05379604e-05  7.20632761e-05  6.56340963e-05  6.35004656e-05 
 1.50494911e-06  9.27000000e-01  1.79962524e+00  1.79322965e+00 -2.85764031e-04  4.12722922e-05  5.26769489e-05  4.90141114e-05  4.66088471e-05  4.62283351e-05 
 1.50576421e-06  9.27000000e-01  1.80028573e+00  1.80003487e+00  2.33697018e-04  3.76460414e-05  3.10175639e-05  2.96449130e-05  2.96129555e-05  2.98717225e-05 
 1.50681901e-06  9.27000000e-01  1.79991207e+00  1.80145855e+00  1.25773976e-04  7.78123827e-06  7.64702391e-06  7.54927329e-06  8.55781131e-06  9.21028855e-06 
 1.50789885e-06  9.27000000e-01  1.79984276e+00  1.80027535e+00  4.20443678e-06  3.52260935e-06  5.00743290e-06  4.93721952e-06  5.37932944e-06  5.65621674e-06 
 1.50936281e-06  9.27000000e-01  1.79991466e+00  1.80036493e+00 -3.42240225e-06 -1.71986886e-06 -1.35021619e-06 -1.25209641e-06 -9.36884000e-07 -7.08007068e-07 
 1.51039076e-06  9.27000000e-01  1.79987894e+00  1.80018650e+00 -1.56964237e-06  1.87382651e-06  1.91454328e-06  1.85192925e-06  1.81210120e-06  1.80626356e-06 
 1.51154768e-06  9.27000000e-01  1.79988407e+00  1.80012469e+00 -7.76199345e-06 -1.49249085e-06 -1.34511064e-06 -1.28661305e-06 -1.15312505e-06 -1.05762406e-06 
 1.51276507e-06  9.27000000e-01  1.79987054e+00  1.79997352e+00 -5.74662267e-06  1.43482702e-06  1.47414446e-06  1.42059116e-06  1.33287011e-06  1.27891758e-06 
 1.51423742e-06  9.27000000e-01  1.79986958e+00  1.79985911e+00 -1.10933984e-05 -1.26175111e-06 -1.16731779e-06 -1.12466378e-06 -1.02564673e-06 -9.64449812e-07 
 1.51572912e-06  9.27000000e-01  1.79987524e+00  1.79990054e+00  2.93836247e-06  1.46974702e-06  1.31798758e-06  1.27373371e-06  1.18714483e-06  1.13256083e-06 
 1.51739860e-06  9.27000000e-01  1.79986971e+00  1.79985560e+00 -4.48969789e-06 -1.11863530e-06 -1.01141026e-06 -9.77588321e-07 -8.89184928e-07 -8.36356039e-07 
 1.52071015e-06  9.27000000e-01  1.79987538e+00  1.79989977e+00  4.23155478e-06  1.26946460e-06  1.21113194e-06  1.17208479e-06  1.08950073e-06  1.03809567e-06 
 1.52523727e-06  9.27000000e-01  1.79986977e+00  1.79985567e+00 -4.11061197e-06 -1.08019022e-06 -9.56134235e-07 -9.27893854e-07 -8.45194726e-07 -7.95836089e-07 
 1.53428763e-06  9.27000000e-01  1.79987555e+00  1.79989922e+00  4.15863471e-06  1.25367593e-06  1.18705293e-06  1.14536432e-06  1.06182796e-06  1.01078097e-06 
 1.55121291e-06  9.27000000e-01  1.79987006e+00  1.79985533e+00 -3.99016248e-06 -1.03353922e-06 -9.27742878e-07 -9.07572264e-07 -8.29377240e-07 -7.82267591e-07 
 1.58135030e-06  9.27000000e-01  1.79987604e+00  1.79989832e+00  4.23178359e-06  1.28518253e-06  1.19133981e-06  1.14260162e-06  1.05592719e-06  1.00376032e-06 
 1.64162508e-06  9.27000000e-01  1.79987085e+00  1.79985428e+00 -3.87794841e-06 -9.91526385e-07 -9.15869928e-07 -8.99880544e-07 -8.24582992e-07 -7.78643558e-07 
 1.75010000e-06  9.27000000e-01  1.79987708e+00  1.79989709e+00  4.25501736e-06  1.28741412e-06  1.18024316e-06  1.13668736e-06  1.05119060e-06  9.99923940e-07 
 1.75011000e-06  9.27000000e-01  1.79989699e+00  1.79993621e+00  4.57969615e-05  5.06133054e-05  5.61954327e-05  5.07012494e-05  4.68626874e-05  4.37498511e-05 
 1.75013000e-06  9.27000000e-01  1.79992892e+00  1.79999145e+00  1.30855641e-04  1.51371700e-04  1.70086357e-04  1.52577645e-04  1.40758649e-04  1.31508342e-04 
 1.75017000e-06  9.27000000e-01  1.79997746e+00  1.80011160e+00  3.78702056e-04  4.37106941e-04  5.01314805e-04  4.48287885e-04  4.11231703e-04  3.87067640e-04 
 1.75020000e-06  9.27000000e-01  1.79999808e+00  1.80018724e+00  6.10367780e-04  7.05503511e-04  8.15178512e-04  7.27405425e-04  6.66794685e-04  6.30463633e-04 
 1.75020081e-06  9.27000000e-01  1.79999603e+00  1.80018444e+00  6.12010885e-04  7.07387932e-04  8.17689733e-04  7.29393711e-04  6.68661704e-04  6.32346467e-04 
 1.75020244e-06  9.27000000e-01  1.79999177e+00  1.80017858e+00  6.14736011e-04  7.10751926e-04  8.22441825e-04  7.33106502e-04  6.72043892e-04  6.35732896e-04 
 1.75020569e-06  9.27000000e-01  1.79998465e+00  1.80016935e+00  6.23161907e-04  7.21016084e-04  8.35955275e-04  7.44398993e-04  6.82394879e-04  6.46007889e-04 
 1.75021219e-06  9.27000000e-01  1.79997339e+00  1.80015337e+00  6.44332064e-04  7.45813113e-04  8.67087702e-04  7.71020959e-04  7.07001527e-04  6.70345108e-04 
 1.75022520e-06  9.27000000e-01  1.79995366e+00  1.80012053e+00  6.79359255e-04  7.86512984e-04  9.18375699e-04  8.14329136e-04  7.46892614e-04  7.10004696e-04 
 1.75025121e-06  9.27000000e-01  1.79992197e+00  1.80006233e+00  7.07219650e-04  8.16286085e-04  9.58306747e-04  8.46442955e-04  7.77414049e-04  7.42614139e-04 
 1.75030323e-06  9.27000000e-01  1.79987789e+00  1.79997037e+00  6.25139152e-04  7.11179692e-04  8.41735230e-04  7.39318346e-04  6.82393366e-04  6.58746080e-04 
 1.75040727e-06  9.27000000e-01  1.79983834e+00  1.79986715e+00  3.51133999e-04  3.81266132e-04  4.63045662e-04  4.00014102e-04  3.74062567e-04  3.71949478e-04 
 1.75061536e-06  9.27000000e-01  1.79982704e+00  1.79980671e+00  1.26113079e-05 -1.01586902e-05  7.24752646e-06 -6.29724049e-06  7.49619540e-07  1.57371725e-05 
 1.75096988e-06  9.27000000e-01  1.79982844e+00  1.79982444e+00 -1.30612884e-04 -1.60349738e-04 -1.80389339e-04 -1.67470419e-04 -1.49417301e-04 -1.36674171e-04 
 1.75134244e-06  9.27000000e-01  1.79989463e+00  1.79991406e+00 -2.55489005e-05 -3.39907669e-05 -5.53764199e-05 -3.92682726e-05 -3.12262789e-05 -3.02258006e-05 
 1.75181066e-06  9.27000000e-01  1.80004761e+00  1.79994220e+00  8.34697412e-05  8.96661623e-05  7.95004272e-05  9.04132676e-05  8.89326660e-05  8.39266556e-05 
 1.75234253e-06  9.27000000e-01  1.80014743e+00  1.79988163e+00 -7.73660483e-05 -9.44641927e-05 -1.07035985e-04 -9.57884700e-05 -8.76586909e-05 -8.39604825e-05 
 1.75304174e-06  9.27000000e-01  1.80012845e+00  1.79967341e+00 -1.55110220e-04 -1.59440317e-04 -1.72842205e-04 -1.62652964e-04 -1.55555664e-04 -1.52070432e-04 
 1.75386066e-06  9.27000000e-01  1.79968828e+00  1.79819463e+00 -1.29579160e-04 -4.51012533e-05 -4.81570098e-05 -4.53500093e-05 -4.68204822e-05 -4.87274382e-05 
 1.75463884e-06  9.27000000e-01  1.80002887e+00  1.80703851e+00  4.07078885e-04 -1.76388485e-06 -1.30258376e-05 -1.21939969e-05 -1.44056545e-05 -1.60550018e-05 
 1.75552279e-06  9.27000000e-01  1.80001087e+00  1.81168270e+00  4.00740350e-04  2.04743837e-05  1.87689955e-05  1.85378959e-05  1.62827940e-05  1.45335113e-05 
 1.75637429e-06  9.27000000e-01  1.79961346e+00  1.80451423e+00 -1.76192006e-04 -2.23233320e-06  7.66103886e-06  7.84374509e-06  7.42669371e-06  6.96431064e-06 
 1.75716310e-06  9.27000000e-01  1.79984308e+00  1.80141222e+00 -2.19842108e-04  7.29379756e-06  1.21659310e-05  1.21906930e-05  1.17350240e-05  1.12589884e-05 
 1.75807576e-06  9.27000000e-01  1.79990193e+00  1.80041175e+00 -1.42913325e-04  2.98234568e-06  2.99441617e-06  3.15585444e-06  3.44926051e-06  3.54261989e-06 
 1.75909161e-06  9.27000000e-01  1.79979304e+00  1.79984225e+00 -7.62294062e-05  5.73912632e-06  4.55656508e-06  4.60234603e-06  4.57065601e-06  4.50696546e-06 
 1.76031846e-06  9.27000000e-01  1.79981491e+00  1.79981963e+00 -2.39280264e-05  1.37177306e-06  5.23493012e-08  1.09834156e-07  3.37274840e-07  4.80807447e-07 
 1.76153483e-06  9.27000000e-01  1.79985061e+00  1.79976227e+00 -8.45449462e-06  2.16491840e-06  1.64269199e-06  1.64261796e-06  1.58052001e-06  1.54534172e-06 
 1.76339141e-06  9.27000000e-01  1.79987855e+00  1.79978200e+00 -1.47932325e-07 -3.14849084e-07 -5.37429205e-07 -5.33454861e-07 -4.22976414e-07 -3.44022559e-07 
 1.76545497e-06  9.27000000e-01  1.79987029e+00  1.79974171e+00 -1.03240937e-06  7.53450830e-07  8.01578626e-07  7.86062571e-07  6.99168098e-07  6.44878914e-07 
 1.76859932e-06  9.27000000e-01  1.79987773e+00  1.79976318e+00  9.07213434e-07 -3.44878448e-07 -4.31064441e-07 -4.36969773e-07 -3.61570215e-07 -3.10572069e-07 
 1.77318944e-06  9.27000000e-01  1.79987101e+00  1.79973891e+00 -5.80012111e-07  5.80955821e-07  6.33300700e-07  6.19969299e-07  5.41494587e-07  4.89475771e-07 
 1.78236969e-06  9.27000000e-01  1.79987755e+00  1.79976240e+00  9.35375748e-07 -2.79145338e-07 -3.57348054e-07 -3.63151234e-07 -2.93914741e-07 -2.46831958e-07 
 1.80073020e-06  9.27000000e-01  1.79987122e+00  1.79973921e+00 -6.03352016e-07  5.38583386e-07  5.90889601e-07  5.79803795e-07  5.05115942e-07  4.55344639e-07 
 1.83576666e-06  9.27000000e-01  1.79987761e+00  1.79976196e+00  9.21328372e-07 -2.70014826e-07 -3.43155688e-07 -3.46520250e-07 -2.77822913e-07 -2.31194530e-07 
 1.90583958e-06  9.27000000e-01  1.79987147e+00  1.79973906e+00 -6.33055602e-07  5.16361089e-07  5.73955717e-07  5.67055850e-07  4.94659201e-07  4.46170723e-07 
 2.00000000e-06  9.27000000e-01  1.79987780e+00  1.79976159e+00  8.92080294e-07 -2.78625600e-07 -3.45198464e-07 -3.44355653e-07 -2.74469144e-07 -2.27291982e-07 
 2.00001000e-06  9.27000000e-01  1.79985231e+00  1.79971283e+00 -6.34042424e-05 -7.38860570e-05 -8.20111847e-05 -7.53942669e-05 -6.90615345e-05 -6.47440874e-05 
 2.00003000e-06  9.27000000e-01  1.79981163e+00  1.79961995e+00 -1.97397349e-04 -2.27314027e-04 -2.54853750e-04 -2.32694003e-04 -2.13382164e-04 -2.00512684e-04 
 2.00007000e-06  9.27000000e-01  1.79976286e+00  1.79947590e+00 -5.14512464e-04 -5.93469012e-04 -6.77961591e-04 -6.11098453e-04 -5.61113967e-04 -5.30320531e-04 
 2.00010000e-06  9.27000000e-01  1.79974260e+00  1.79940798e+00 -7.62933405e-04 -8.82312967e-04 -1.01682717e-03 -9.08657561e-04 -8.35424852e-04 -7.92394145e-04 
 2.00010433e-06  9.27000000e-01  1.79975444e+00  1.79942391e+00 -7.67802493e-04 -8.88064510e-04 -1.02664478e-03 -9.15237317e-04 -8.41612527e-04 -7.98964701e-04 
 2.00011298e-06  9.27000000e-01  1.79977526e+00  1.79945312e+00 -7.78740051e-04 -9.00759119e-04 -1.04744936e-03 -9.29920778e-04 -8.55216164e-04 -8.13271191e-04 
 2.00013030e-06  9.27000000e-01  1.79980544e+00  1.79950686e+00 -7.88623941e-04 -9.10458218e-04 -1.06906404e-03 -9.41945916e-04 -8.66417869e-04 -8.26639856e-04 
 2.00016492e-06  9.27000000e-01  1.79984962e+00  1.79959661e+00 -7.31569222e-04 -8.39311880e-04 -1.00279418e-03 -8.70954495e-04 -8.01538073e-04 -7.69336723e-04 
 2.00023417e-06  9.27000000e-01  1.79989842e+00  1.79970558e+00 -4.97026730e-04 -5.54959414e-04 -6.94337723e-04 -5.80838545e-04 -5.36880038e-04 -5.24195056e-04 
 2.00035985e-06  9.27000000e-01  1.79992295e+00  1.79978285e+00 -1.41993437e-04 -1.36740475e-04 -2.19928064e-04 -1.50451222e-04 -1.41762217e-04 -1.51703544e-04 
 2.00056019e-06  9.27000000e-01  1.79992117e+00  1.79980394e+00  6.85208618e-05  9.57602964e-05  6.11496096e-05  9.26122683e-05  8.36397199e-05  6.65750122e-05 
 2.00096088e-06  9.27000000e-01  1.79989285e+00  1.79980274e+00  1.82572500e-04  2.07105719e-04  2.12551761e-04  2.12833396e-04  1.97200675e-04  1.83140833e-04 
 2.00145421e-06  9.27000000e-01  1.79965402e+00  1.79972852e+00  1.48075338e-04  1.70753923e-04  1.90786049e-04  1.76783725e-04  1.66885604e-04  1.60943037e-04 
 2.00198325e-06  9.27000000e-01  1.79934538e+00  1.79963903e+00 -2.37576450e-05  9.66015132e-06  2.79398371e-05  1.20779568e-05  1.32112963e-05  1.69990472e-05 
 2.00247908e-06  9.27000000e-01  1.79954662e+00  1.79991644e+00 -1.48711555e-04 -1.38707324e-04 -1.26877702e-04 -1.40975841e-04 -1.33519116e-04 -1.24271924e-04 
 2.00301980e-06  9.27000000e-01  1.80009293e+00  1.80044610e+00  1.09056259e-04 -1.28348144e-04 -1.23262095e-04 -1.36683316e-04 -1.33312944e-04 -1.27002075e-04 
 2.00357909e-06  9.27000000e-01  1.80028307e+00  1.79997239e+00  7.47351554e-04  3.02750589e-05  2.97809937e-05  1.67223072e-05  1.06967662e-05  9.14492047e-06 
 2.00431987e-06  9.27000000e-01  1.79947509e+00  1.79214456e+00  5.97256132e-04  6.93012618e-05  7.97160604e-05  7.19561294e-05  6.59389013e-05  6.39788169e-05 
 2.00499239e-06  9.27000000e-01  1.80014177e+00  1.80103149e+00 -3.33246931e-04  2.47367106e-05  5.21854140e-05  4.86937926e-05  4.63808174e-05  4.60100712e-05 
 2.00562968e-06  9.27000000e-01  1.80353065e+00  1.86228415e+00  7.92546649e-04  4.62005727e-05  3.42285062e-05  3.26062861e-05  3.23954984e-05  3.24684121e-05 
 2.00630825e-06  9.27000000e-01  1.80253104e+00  1.90308144e+00 -1.43982367e-04 -5.90323809e-07  1.53071160e-05  1.47347216e-05  1.54870376e-05  1.59988719e-05 
 2.00698923e-06  9.27000000e-01  1.79264809e+00  1.77651816e+00 -1.00791331e-02 -2.11298287e-04  9.36802084e-06  9.21974864e-06  9.79205690e-06  1.05218005e-05 
 2.00773076e-06  9.27000000e-01  1.78651535e+00  1.54387178e+00 -2.17458379e-02 -3.28232555e-04  1.07880313e-06  1.22618653e-06  1.79828482e-06  2.76862862e-06 
 2.00846454e-06  9.27000000e-01  1.78674129e+00  1.32465242e+00 -2.97001748e-02 -3.04381099e-04  2.60272459e-06  2.79038775e-06  2.99499687e-06  3.68936098e-06 
 2.00931115e-06  9.27000000e-01  1.78631006e+00  1.06552232e+00 -4.01046172e-02 -3.25002093e-04 -1.45997931e-06 -1.16950708e-06 -8.71524254e-07 -1.95587254e-07 
 2.01033170e-06  9.27000000e-01  1.78675893e+00  7.62513881e-01 -5.77435344e-02 -4.24303701e-04  4.66651222e-07  7.92222738e-07  9.12357382e-07  1.35645678e-06 
 2.01181485e-06  9.27000000e-01  1.78986472e+00  4.04481343e-01 -6.25046633e-02 -1.35168577e-04 -1.50772512e-05 -1.29313185e-05 -9.78169800e-06 -7.72410034e-06 
 2.01401617e-06  9.27000000e-01  1.79620759e+00  1.21617332e-01  1.52056352e-01  2.69893541e-03 -1.27003719e-04 -1.04163578e-04 -7.59615775e-05 -5.43932570e-05 
 2.01545138e-06  9.27000000e-01  1.79858818e+00  5.97084836e-02  4.79864507e-01  5.45149013e-03 -2.06428877e-04 -1.59509891e-04 -1.10233908e-04 -7.05638847e-05 
 2.01705378e-06  9.27000000e-01  1.79949662e+00  3.14095697e-02  9.71556493e-01  7.87896705e-03 -1.29326892e-04 -7.24933359e-05 -2.95928799e-05  8.55242282e-07 
 2.01856380e-06  9.27000000e-01  1.80035065e+00  3.19033623e-02  1.56594600e+00  1.03179631e-02  2.58581727e-06  4.24251969e-05  5.61680190e-05  5.57466307e-05 
 2.01972300e-06  9.27000000e-01  1.79957798e+00  2.12983792e-02  1.80087223e+00  6.71954079e-03  1.72144761e-04  1.76623126e-04  1.51128365e-04  1.15361868e-04 
 2.02082234e-06  9.27000000e-01  1.79965080e+00  9.85789034e-03  1.80585923e+00  2.11631439e-03  1.97742455e-04  1.75169274e-04  1.31532487e-04  7.87709159e-05 
 2.02198759e-06  9.27000000e-01  1.79971257e+00  2.42925376e-03  1.77156711e+00  2.04656306e-05  1.26010299e-04  9.17955591e-05  4.89705728e-05  6.78711522e-06 
 2.02321996e-06  9.27000000e-01  1.79987019e+00  1.02574606e-03  1.77720199e+00  1.92446798e-04  7.80983264e-05  4.21060450e-05  8.07269250e-06 -1.43389183e-05 
 2.02470417e-06  9.27000000e-01  1.79989103e+00  7.07658188e-04  1.79687226e+00  3.50311463e-04  4.08636089e-05  8.60824456e-06 -1.24858381e-05 -1.74448079e-05 
 2.02608176e-06  9.27000000e-01  1.79986845e+00  1.61034763e-04  1.80361898e+00  2.09265620e-04  2.57348022e-05 -4.13191411e-07 -1.29083213e-05 -1.02641224e-05 
 2.02846517e-06  9.27000000e-01  1.79985308e+00 -5.96091176e-04  1.79748302e+00 -9.92668793e-05 -1.50908797e-06 -1.67928160e-05 -1.70799036e-05 -9.65379518e-06 
 2.03070378e-06  9.27000000e-01  1.79988868e+00 -4.03230495e-04  1.80244283e+00  8.56523408e-05 -8.63881844e-06 -1.48815741e-05 -1.05764232e-05 -4.02845970e-06 
 2.03518101e-06  9.27000000e-01  1.79984636e+00 -6.23574903e-04  1.79817468e+00 -9.39735297e-05 -1.49385353e-05 -1.16507790e-05 -5.45009149e-06 -2.15657259e-06 
 2.04337912e-06  9.27000000e-01  1.79988224e+00 -4.20698333e-04  1.80199206e+00  6.63986576e-05 -8.10087497e-06 -1.88214714e-06  2.97004446e-07  4.46302430e-07 
 2.05601034e-06  9.27000000e-01  1.79984508e+00 -5.11695080e-04  1.79826143e+00 -8.21147841e-05 -2.97680329e-06 -7.20947574e-07 -7.07290980e-07 -5.70346601e-07 
 2.08127277e-06  9.27000000e-01  1.79988080e+00 -1.62282658e-04  1.80178923e+00  7.26017446e-05 -4.79129483e-07 -1.12453533e-07  2.96987369e-07  4.26401344e-07 
 2.11950355e-06  9.27000000e-01  1.79984969e+00 -2.08407259e-04  1.79826828e+00 -6.95583090e-05  2.67243575e-06  1.57588044e-06  6.94874246e-07  2.39473465e-07 
 2.17367002e-06  9.27000000e-01  1.79989603e+00 -5.06723482e-05  1.80171855e+00  8.19322805e-05  4.53124754e-06  2.17623060e-06  1.32710697e-06  9.21653582e-07 
 2.24310965e-06  9.27000000e-01  1.79986788e+00 -8.07540318e-05  1.79819054e+00 -6.95152672e-05  9.89808697e-07  4.71894079e-07  1.12471841e-07 -5.39713084e-08 
 2.25010000e-06  9.27000000e-01  1.79990101e+00  3.38591102e-05  1.80158540e+00  7.17811071e-05  2.17664433e-07 -2.47633551e-08  1.01171899e-08  1.04435914e-07 
 2.25011000e-06  9.27000000e-01  1.79992509e+00  1.11402213e-04  1.80165519e+00  1.15452886e-04  5.59067068e-05  5.03478295e-05  4.65779517e-05  4.35638823e-05 
 2.25013000e-06  9.27000000e-01  1.79996133e+00  2.08275929e-04  1.80168540e+00  2.10152698e-04  1.69994088e-04  1.52362437e-04  1.40611458e-04  1.31468164e-04 
 2.25017000e-06  9.27000000e-01  1.80001146e+00  4.07688293e-04  1.80163147e+00  4.81154692e-04  5.00736327e-04  4.47589244e-04  4.10636397e-04  3.86624752e-04 
 2.25020000e-06  9.27000000e-01  1.80003827e+00  5.91615882e-04  1.80159495e+00  7.36559029e-04  8.14286681e-04  7.26418969e-04  6.65938580e-04  6.29780575e-04 
 2.25020083e-06  9.27000000e-01  1.80003638e+00  5.91649215e-04  1.80158498e+00  7.38057102e-04  8.16811482e-04  7.28402076e-04  6.67799552e-04  6.31659845e-04 
 2.25020248e-06  9.27000000e-01  1.80003238e+00  5.91354827e-04  1.80156002e+00  7.40270832e-04  8.21634699e-04  7.32156722e-04  6.71217620e-04  6.35085278e-04 
 2.25020579e-06  9.27000000e-01  1.80002589e+00  5.93731285e-04  1.80150466e+00  7.47964010e-04  8.35417367e-04  7.43682188e-04  6.81785081e-04  6.45578201e-04 
 2.25021240e-06  9.27000000e-01  1.80001634e+00  6.03196302e-04  1.80140448e+00  7.68853184e-04  8.67013555e-04  7.70693229e-04  7.06750604e-04  6.70272077e-04 
 2.25022563e-06  9.27000000e-01  1.80000005e+00  6.17561720e-04  1.80121785e+00  8.02231107e-04  9.18612129e-04  8.14234023e-04  7.46863638e-04  7.10175517e-04 
 2.25025209e-06  9.27000000e-01  1.79997260e+00  6.16516949e-04  1.80090156e+00  8.19864836e-04  9.56985302e-04  8.44937857e-04  7.76136201e-04  7.41662200e-04 
 2.25030502e-06  9.27000000e-01  1.79992633e+00  5.16992388e-04  1.80044481e+00  6.99957957e-04  8.34382265e-04  7.32475054e-04  6.76271461e-04  6.53255795e-04 
 2.25041086e-06  9.27000000e-01  1.79987293e+00  2.62191713e-04  1.79997599e+00  3.63137629e-04  4.50184919e-04  3.88344334e-04  3.63493897e-04  3.62177472e-04 
 2.25062254e-06  9.27000000e-01  1.79984935e+00 -3.21225870e-05  1.79975259e+00 -2.02256397e-05 -3.72997096e-06 -1.62205281e-05 -8.26304712e-06  7.23164539e-06 
 2.25097660e-06  9.27000000e-01  1.79986532e+00 -1.70129523e-04  1.79983224e+00 -1.56775922e-04 -1.82010706e-04 -1.68819991e-04 -1.50464226e-04 -1.37518477e-04 
 2.25135025e-06  9.27000000e-01  1.79989393e+00 -4.91192026e-05  1.79999361e+00 -2.75460159e-05 -5.32343134e-05 -3.69518136e-05 -2.87530290e-05 -2.75402212e-05 
 2.25182249e-06  9.27000000e-01  1.79990873e+00  1.93012696e-04  1.80004123e+00  8.71029942e-05  7.48853501e-05  8.60778111e-05  8.52456434e-05  8.08898864e-05 
 2.25235618e-06  9.27000000e-01  1.79988915e+00  2.29084918e-04  1.79989798e+00 -9.82303599e-05 -1.13259090e-04 -1.01529153e-04 -9.26878275e-05 -8.83108461e-05 
 2.25305260e-06  9.27000000e-01  1.79987284e+00  3.09617258e-04  1.79976048e+00 -1.59687600e-04 -1.73044476e-04 -1.62338117e-04 -1.54744606e-04 -1.50820881e-04 
 2.25388177e-06  9.27000000e-01  1.79970837e+00  3.10113262e-04  1.79840752e+00 -7.33495843e-05 -4.87497384e-05 -4.53325549e-05 -4.61845998e-05 -4.75897581e-05 
 2.25464819e-06  9.27000000e-01  1.79973929e+00  6.25991979e-04  1.80693305e+00  1.53604897e-04 -1.48117412e-05 -1.31412141e-05 -1.46438275e-05 -1.58209101e-05 
 2.25550416e-06  9.27000000e-01  1.79985580e+00  3.93242172e-04  1.80804287e+00  8.76856619e-05  1.56776382e-05  1.63865472e-05  1.48513454e-05  1.35513144e-05 
 2.25637763e-06  9.27000000e-01  1.79984979e+00 -1.64259291e-04  1.79964299e+00 -1.27501741e-04  5.54237407e-06  6.73154945e-06  6.99026865e-06  6.89619687e-06 
 2.25721238e-06  9.27000000e-01  1.79988176e+00 -9.03577093e-05  1.79940285e+00 -4.07883974e-05  9.39381908e-06  1.04869591e-05  1.07537161e-05  1.06471407e-05 
 2.25853174e-06  9.27000000e-01  1.79988924e+00 -1.86395975e-05  1.80024511e+00  1.35443924e-06 -5.69063329e-07  7.08861459e-07  1.69594141e-06  2.15334680e-06 
 2.25987906e-06  9.27000000e-01  1.79987713e+00 -4.43260624e-05  1.79963870e+00 -7.34949280e-06  1.33476016e-06  2.51771428e-06  3.07118176e-06  3.29268474e-06 
 2.26192397e-06  9.27000000e-01  1.79988730e+00 -1.31486998e-05  1.80010025e+00  2.77773553e-06 -3.41442374e-06 -2.18889836e-06 -1.44281703e-06 -1.06308041e-06 
 2.26470487e-06  9.27000000e-01  1.79987744e+00 -3.61597660e-05  1.79973475e+00 -6.56672695e-06 -5.85319135e-07  5.80713746e-07  9.36651128e-07  1.06467115e-06 
 2.26880060e-06  9.27000000e-01  1.79988560e+00 -1.50260540e-05  1.80004773e+00  1.02447053e-06 -3.16563936e-06 -2.00758216e-06 -1.44593226e-06 -1.16794251e-06 
 2.27699205e-06  9.27000000e-01  1.79987666e+00 -3.25999618e-05  1.79975889e+00 -6.12961863e-06 -3.34252323e-07  6.61673471e-07  8.82202011e-07  9.58263109e-07 
 2.29063064e-06  9.27000000e-01  1.79988339e+00 -1.16571643e-05  1.80002630e+00  1.16070955e-06 -2.38187286e-06 -1.58979341e-06 -1.21294874e-06 -1.01339319e-06 
 2.31546005e-06  9.27000000e-01  1.79987432e+00 -2.44082983e-05  1.79975558e+00 -4.64178661e-06  5.83111676e-07  1.02683106e-06  1.03866203e-06  1.02013649e-06 
 2.36078463e-06  9.27000000e-01  1.79988059e+00  7.23877063e-07  1.80000886e+00  3.03860343e-06 -1.29686103e-06 -1.13991499e-06 -9.80924124e-07 -8.82401825e-07 
 2.43016010e-06  9.27000000e-01  1.79987216e+00 -1.08884278e-05  1.79974741e+00 -3.26371536e-06  1.22299246e-06  1.24862483e-06  1.14009578e-06  1.06643568e-06 
 2.50000000e-06  9.27000000e-01  1.79987919e+00  7.99341819e-06  1.80000258e+00  3.28140296e-06 -1.11750003e-06 -1.07631346e-06 -9.44085217e-07 -8.58522031e-07 
 2.50001000e-06  9.27000000e-01  1.79985270e+00 -5.33946809e-05  1.79986026e+00 -7.31641942e-05 -8.26541264e-05 -7.59887983e-05 -6.96010533e-05 -6.52497408e-05 
 2.50003000e-06  9.27000000e-01  1.79981008e+00 -1.79002145e-04  1.79959013e+00 -2.30450450e-04 -2.55146603e-04 -2.32935650e-04 -2.13585034e-04 -2.00698485e-04 
 2.50007000e-06  9.27000000e-01  1.79975224e+00 -4.59836976e-04  1.79919235e+00 -5.96949126e-04 -6.77878151e-04 -6.10978354e-04 -5.60984168e-04 -5.30190899e-04 
 2.50010000e-06  9.27000000e-01  1.79971874e+00 -6.74665186e-04  1.79898906e+00 -8.83059497e-04 -1.01663294e-03 -9.08430534e-04 -8.35201569e-04 -7.92172307e-04 
 2.50010433e-06  9.27000000e-01  1.79972909e+00 -6.76663111e-04  1.79902175e+00 -8.87051983e-04 -1.02645891e-03 -9.15018914e-04 -8.41396264e-04 -7.98749592e-04 
 2.50011299e-06  9.27000000e-01  1.79974718e+00 -6.80774800e-04  1.79909311e+00 -8.96802029e-04 -1.04726850e-03 -9.29710023e-04 -8.55007374e-04 -8.13064434e-04 
 2.50013030e-06  9.27000000e-01  1.79977300e+00 -6.81579485e-04  1.79921954e+00 -9.03314620e-04 -1.06887574e-03 -9.41728834e-04 -8.66204340e-04 -8.26429805e-04 
 2.50016493e-06  9.27000000e-01  1.79981585e+00 -6.25949328e-04  1.79942053e+00 -8.29123006e-04 -1.00261182e-03 -8.70743904e-04 -8.01329655e-04 -7.69131256e-04 
 2.50023419e-06  9.27000000e-01  1.79987478e+00 -4.25448568e-04  1.79968331e+00 -5.46604715e-04 -6.94178695e-04 -5.80659726e-04 -5.36702535e-04 -5.24018436e-04 
 2.50035994e-06  9.27000000e-01  1.79991499e+00 -1.24671154e-04  1.79990090e+00 -1.34156656e-04 -2.19767808e-04 -1.50285869e-04 -1.41597120e-04 -1.51536471e-04 
 2.50056040e-06  9.27000000e-01  1.79991181e+00  6.46358961e-05  1.79999010e+00  9.50364114e-05  6.12243826e-05  9.26867490e-05  8.37188977e-05  6.66609129e-05 
 2.50096132e-06  9.27000000e-01  1.79989306e+00  1.60339407e-04  1.80000637e+00  2.04852085e-04  2.12548048e-04  2.12837512e-04  1.97217679e-04  1.83167945e-04 
 2.50145494e-06  9.27000000e-01  1.79985691e+00 -7.69169720e-05  1.79984674e+00  1.66092764e-04  1.90515926e-04  1.76532630e-04  1.66661802e-04  1.60741000e-04 
 2.50198403e-06  9.27000000e-01  1.79981221e+00 -5.81907066e-04  1.79951773e+00  2.91469471e-06  2.75955057e-05  1.17636736e-05  1.29219271e-05  1.67276402e-05 
 2.50245210e-06  9.27000000e-01  1.79987754e+00 -7.59990720e-04  1.79965079e+00 -1.31481323e-04 -1.21526794e-04 -1.35677583e-04 -1.28349160e-04 -1.19222058e-04 
 2.50302662e-06  9.27000000e-01  1.80003819e+00 -5.34948949e-04  1.80135340e+00 -9.24402592e-05 -1.24609155e-04 -1.37896623e-04 -1.34434014e-04 -1.28111874e-04 
 2.50356183e-06  9.27000000e-01  1.80008716e+00 -2.67187891e-04  1.80193654e+00  4.48000707e-05  2.47164005e-05  1.16693142e-05  5.85377888e-06  4.49874075e-06 
 2.50423170e-06  9.27000000e-01  1.79997580e+00 -3.20776368e-04  1.79771597e+00 -7.52102823e-06  8.04994091e-05  7.20595212e-05  6.56368148e-05  6.35051039e-05 
 2.50494847e-06  9.27000000e-01  1.79987573e+00 -4.07360458e-04  1.79270740e+00 -8.95154388e-05  5.26177440e-05  4.89955597e-05  4.65993320e-05  4.62213913e-05 
 2.50577229e-06  9.27000000e-01  1.79992525e+00  1.61902763e-04  1.80076673e+00  1.41112862e-04  3.07575308e-05  2.94347153e-05  2.94276283e-05  2.96905955e-05 
 2.50683377e-06  9.27000000e-01  1.79986762e+00  7.28742605e-05  1.80145992e+00  4.03994857e-05  7.41019257e-06  7.35702868e-06  8.37175189e-06  9.02552525e-06 
 2.50791706e-06  9.27000000e-01  1.79987052e+00 -1.20492262e-05  1.80021095e+00 -1.08144664e-06  4.90897443e-06  4.86833285e-06  5.30848273e-06  5.58181980e-06 
 2.50935571e-06  9.27000000e-01  1.79987839e+00  2.14212945e-06  1.80040535e+00 -3.65235929e-06 -1.37869910e-06 -1.24890520e-06 -9.29398750e-07 -6.98009542e-07 
 2.51038091e-06  9.27000000e-01  1.79987425e+00 -4.43311538e-06  1.80015338e+00  9.99553719e-07  1.89115415e-06  1.85116533e-06  1.81584425e-06  1.81227509e-06 
 2.51152826e-06  9.27000000e-01  1.79987577e+00 -7.51125079e-06  1.80011898e+00 -3.60041072e-06 -1.38183537e-06 -1.29338939e-06 -1.15600195e-06 -1.05776662e-06 
 2.51268938e-06  9.27000000e-01  1.79987513e+00 -5.30710579e-06  1.79999088e+00 -6.06212201e-07  1.43699140e-06  1.40820311e-06  1.32559527e-06  1.27495688e-06 
 2.51408595e-06  9.27000000e-01  1.79987526e+00 -9.93022737e-06  1.79985740e+00 -7.21945780e-06 -1.19633137e-06 -1.12645520e-06 -1.02367564e-06 -9.59488546e-07 
 2.51561065e-06  9.27000000e-01  1.79987581e+00  1.01585618e-06  1.79990098e+00  2.76543425e-06  1.28007088e-06  1.25586049e-06  1.17457438e-06  1.12358122e-06 
 2.51715618e-06  9.27000000e-01  1.79987503e+00 -4.32607334e-06  1.79984941e+00 -3.18062844e-06 -1.04035834e-06 -9.79140032e-07 -8.86365557e-07 -8.30330693e-07 
 2.52024724e-06  9.27000000e-01  1.79987571e+00  2.78944709e-06  1.79990052e+00  3.13690649e-06  1.16457072e-06  1.14597249e-06  1.07077264e-06  1.02380347e-06 
 2.52545469e-06  9.27000000e-01  1.79987498e+00 -3.63835232e-06  1.79984964e+00 -2.99032603e-06 -9.92113783e-07 -9.35583507e-07 -8.46663941e-07 -7.93100501e-07 
 2.53485619e-06  9.27000000e-01  1.79987566e+00  2.78602152e-06  1.79990028e+00  3.06557398e-06  1.13844898e-06  1.11915948e-06  1.04494432e-06  9.98941160e-07 
 2.55338123e-06  9.27000000e-01  1.79987486e+00 -3.45170702e-06  1.79984979e+00 -2.94178487e-06 -9.71609391e-07 -9.19936121e-07 -8.33316684e-07 -7.81260299e-07 
 2.58710103e-06  9.27000000e-01  1.79987549e+00  2.97633719e-06  1.79990015e+00  3.06348260e-06  1.14000559e-06  1.11487468e-06  1.03879041e-06  9.92059902e-07 
 2.65454063e-06  9.27000000e-01  1.79987463e+00 -3.18318123e-06  1.79984983e+00 -2.90546319e-06 -9.53715561e-07 -9.10893313e-07 -8.27782272e-07 -7.77568510e-07 
 2.75010000e-06  9.27000000e-01  1.79987525e+00  3.19102914e-06  1.79990014e+00  3.08542430e-06  1.15182439e-06  1.11842009e-06  1.03917005e-06  9.90893760e-07 
 2.75011000e-06  9.27000000e-01  1.79989529e+00  4.03163786e-05  1.79994339e+00  5.18291223e-05  5.61611204e-05  5.06802240e-05  4.68505930e-05  4.37402726e-05 
 2.75013000e-06  9.27000000e-01  1.79992883e+00  1.15286024e-04  1.80000491e+00  1.51313965e-04  1.70044688e-04  1.52548995e-04  1.40743596e-04  1.31494972e-04 
 2.75017000e-06  9.27000000e-01  1.79998163e+00  3.24757349e-04  1.80014589e+00  4.33856302e-04  5.01029581e-04  4.48013898e-04  4.10982093e-04  3.86832064e-04 
 2.75020000e-06  9.27000000e-01  1.80001293e+00  5.16376277e-04  1.80023623e+00  6.96409752e-04  8.14299236e-04  7.26540003e-04  6.65967893e-04  6.29684635e-04 
 2.75020081e-06  9.27000000e-01  1.80001131e+00  5.17607209e-04  1.80023301e+00  6.98084908e-04  8.16809440e-04  7.28527982e-04  6.67834524e-04  6.31566881e-04 
 2.75020244e-06  9.27000000e-01  1.80000789e+00  5.19481735e-04  1.80022633e+00  7.01035413e-04  8.21573159e-04  7.32253285e-04  6.71228338e-04  6.34964131e-04 
 2.75020569e-06  9.27000000e-01  1.80000247e+00  5.25361423e-04  1.80021616e+00  7.10590500e-04  8.35102861e-04  7.43561410e-04  6.81594169e-04  6.45252827e-04 
 2.75021219e-06  9.27000000e-01  1.79999481e+00  5.40812919e-04  1.80019891e+00  7.34348257e-04  8.66215881e-04  7.70163334e-04  7.06182789e-04  6.69570706e-04 
 2.75022520e-06  9.27000000e-01  1.79998193e+00  5.66557316e-04  1.80016255e+00  7.73204243e-04  9.17476535e-04  8.13446518e-04  7.46053269e-04  7.09207251e-04 
 2.75025121e-06  9.27000000e-01  1.79995942e+00  5.85740320e-04  1.80009584e+00  8.01073997e-04  9.57428683e-04  8.45582639e-04  7.76599700e-04  7.41835217e-04 
 2.75030323e-06  9.27000000e-01  1.79991889e+00  5.16755166e-04  1.79998647e+00  6.97508423e-04  8.41174289e-04  7.38770730e-04  6.81873368e-04  6.58242306e-04 
 2.75040727e-06  9.27000000e-01  1.79986822e+00  2.90419957e-04  1.79986113e+00  3.74425577e-04  4.63078167e-04  4.00052421e-04  3.74096885e-04  3.71973314e-04 
 2.75061536e-06  9.27000000e-01  1.79984186e+00  4.78806438e-06  1.79978888e+00 -9.22011499e-06  7.46675682e-06 -6.06695883e-06  9.77077142e-07  1.59500361e-05 
 2.75096936e-06  9.27000000e-01  1.79985557e+00 -1.41485082e-04  1.79981584e+00 -1.56812683e-04 -1.80311244e-04 -1.67395660e-04 -1.49342819e-04 -1.36583540e-04 
 2.75134139e-06  9.27000000e-01  1.79988445e+00 -2.70043767e-05  1.79992131e+00 -3.26534937e-05 -5.55591206e-05 -3.94370356e-05 -3.13789901e-05 -3.03530058e-05 
 2.75180949e-06  9.27000000e-01  1.79990108e+00  2.22449877e-04  1.79994450e+00  8.78665794e-05  7.97374882e-05  9.06710081e-05  8.91911079e-05  8.41748308e-05 
 2.75234110e-06  9.27000000e-01  1.79988306e+00  2.79749816e-04  1.79987239e+00 -9.23851072e-05 -1.06770879e-04 -9.55132641e-05 -8.73827054e-05 -8.36881015e-05 
 2.75304105e-06  9.27000000e-01  1.79986170e+00  3.45748721e-04  1.79965486e+00 -1.60356321e-04 -1.73094895e-04 -1.62887080e-04 -1.55766895e-04 -1.52268587e-04 
 2.75385862e-06  9.27000000e-01  1.79969544e+00  2.25398205e-04  1.79808409e+00 -7.70285410e-05 -4.83744059e-05 -4.55395150e-05 -4.69978391e-05 -4.88980940e-05 
 2.75463758e-06  9.27000000e-01  1.79971721e+00  4.59279027e-04  1.80801273e+00  1.80500204e-04 -1.30990966e-05 -1.22543763e-05 -1.44608922e-05 -1.61094200e-05 
 2.75552337e-06  9.27000000e-01  1.79988254e+00  3.22581984e-04  1.81235276e+00  1.59525079e-04  1.87627529e-05  1.85464367e-05  1.62950797e-05  1.45493211e-05 
 2.75637394e-06  9.27000000e-01  1.79992502e+00 -2.13860507e-04  1.80367521e+00 -1.08657565e-04  7.62755517e-06  7.82713946e-06  7.41481949e-06  6.95782864e-06 
 2.75716493e-06  9.27000000e-01  1.79995799e+00 -2.17065997e-04  1.80072208e+00 -8.83117087e-05  1.21496482e-05  1.21866822e-05  1.17373025e-05  1.12640659e-05 
 2.75808481e-06  9.27000000e-01  1.79994755e+00 -1.74096780e-04  1.80013410e+00 -4.42591495e-05  2.93032375e-06  3.10417602e-06  3.40602945e-06  3.50385099e-06 
 2.75910630e-06  9.27000000e-01  1.79988220e+00 -1.91896771e-04  1.79971076e+00 -1.70973890e-05  4.52138845e-06  4.58046800e-06  4.55311710e-06  4.49113610e-06 
 2.76036656e-06  9.27000000e-01  1.79987452e+00 -1.62900570e-04  1.79980993e+00 -2.47992383e-06 -3.38299808e-08  3.54355339e-08  2.67772041e-07  4.14633085e-07 
 2.76157116e-06  9.27000000e-01  1.79987856e+00 -1.06132263e-04  1.79974670e+00 -1.42778619e-07  1.62026523e-06  1.63332548e-06  1.57390397e-06  1.53998252e-06 
 2.76344429e-06  9.27000000e-01  1.79987756e+00 -2.92310236e-05  1.79978941e+00  3.22726062e-07 -5.82817985e-07 -5.66787881e-07 -4.50594673e-07 -3.68530362e-07 
 2.76551527e-06  9.27000000e-01  1.79987359e+00 -5.58316488e-06  1.79973415e+00 -2.49296097e-07  7.93232083e-07  7.91074150e-07  7.07735947e-07  6.54785310e-07 
 2.76868468e-06  9.27000000e-01  1.79987600e+00  1.74104186e-06  1.79976825e+00  3.40017259e-07 -4.69779325e-07 -4.63822053e-07 -3.82128375e-07 -3.27801745e-07 
 2.77339484e-06  9.27000000e-01  1.79987378e+00 -1.46275505e-06  1.79973267e+00 -1.57951638e-07  6.28426784e-07  6.27780713e-07  5.52538270e-07  5.01954500e-07 
 2.78281515e-06  9.27000000e-01  1.79987590e+00  1.55034105e-06  1.79976720e+00  3.69125177e-07 -3.94926675e-07 -3.90074041e-07 -3.14953281e-07 -2.64597595e-07 
 2.80165579e-06  9.27000000e-01  1.79987385e+00 -1.40829024e-06  1.79973329e+00 -1.74548156e-07  5.90352659e-07  5.89903944e-07  5.17550505e-07  4.68662275e-07 
 2.83788985e-06  9.27000000e-01  1.79987584e+00  1.54641741e-06  1.79976688e+00  3.80363865e-07 -3.74672077e-07 -3.70949271e-07 -2.97700208e-07 -2.48464994e-07 
 2.91035798e-06  9.27000000e-01  1.79987385e+00 -1.37416313e-06  1.79973348e+00 -1.74604482e-07  5.82855205e-07  5.81441877e-07  5.09398084e-07  4.60792085e-07 
 3.00000000e-06  9.27000000e-01  1.79987580e+00  1.56262152e-06  1.79976679e+00  3.86774286e-07 -3.66999506e-07 -3.64428396e-07 -2.92094503e-07 -2.43359485e-07 
 3.00001000e-06  9.27000000e-01  1.79985046e+00 -5.39488720e-05  1.79970960e+00 -7.29314965e-05 -8.19386323e-05 -7.53199014e-05 -6.89900265e-05 -6.46756500e-05 
 3.00003000e-06  9.27000000e-01  1.79980989e+00 -1.69001476e-04  1.79960083e+00 -2.25111054e-04 -2.54403093e-04 -2.32239990e-04 -2.12938980e-04 -2.00092793e-04 
 3.00007000e-06  9.27000000e-01  1.79975428e+00 -4.36569488e-04  1.79942786e+00 -5.86349389e-04 -6.77249954e-04 -6.10383902e-04 -5.60425913e-04 -5.29665242e-04 
 3.00010000e-06  9.27000000e-01  1.79972160e+00 -6.44994080e-04  1.79934590e+00 -8.69796729e-04 -1.01609063e-03 -9.07919057e-04 -8.34726059e-04 -7.91722559e-04 
 3.00010433e-06  9.27000000e-01  1.79973172e+00 -6.48367265e-04  1.79936374e+00 -8.74766728e-04 -1.02593380e-03 -9.14524045e-04 -8.40936554e-04 -7.98314420e-04 
 3.00011298e-06  9.27000000e-01  1.79974930e+00 -6.55594503e-04  1.79939571e+00 -8.86414321e-04 -1.04677540e-03 -9.29246586e-04 -8.54577247e-04 -8.12656470e-04 
 3.00013030e-06  9.27000000e-01  1.79977434e+00 -6.61331429e-04  1.79945551e+00 -8.95350125e-04 -1.06845668e-03 -9.41339849e-04 -8.65843290e-04 -8.26086253e-04 
 3.00016492e-06  9.27000000e-01  1.79981605e+00 -6.12712690e-04  1.79956001e+00 -8.24540287e-04 -1.00235483e-03 -8.70517954e-04 -8.01120920e-04 -7.68931614e-04 
 3.00023417e-06  9.27000000e-01  1.79987366e+00 -4.20901514e-04  1.79969209e+00 -5.45725885e-04 -6.94192897e-04 -5.80695694e-04 -5.36740323e-04 -5.24053001e-04 
 3.00035985e-06  9.27000000e-01  1.79991304e+00 -1.27014272e-04  1.79979092e+00 -1.35075680e-04 -2.20021495e-04 -1.50547353e-04 -1.41848512e-04 -1.51777472e-04 
 3.00056023e-06  9.27000000e-01  1.79991010e+00  6.01766501e-05  1.79982003e+00  9.55178777e-05  6.10951879e-05  9.25465323e-05  8.35777986e-05  6.65189377e-05 
 3.00096099e-06  9.27000000e-01  1.79989207e+00  1.56002354e-04  1.79981722e+00  2.09060110e-04  2.12518193e-04  2.12790763e-04  1.97162928e-04  1.83104805e-04 
 3.00145389e-06  9.27000000e-01  1.79985750e+00 -7.43007660e-05  1.79973304e+00  1.61386625e-04  1.90697596e-04  1.76738268e-04  1.66840020e-04  1.60897363e-04 
 3.00198255e-06  9.27000000e-01  1.79981404e+00 -5.72152409e-04  1.79963151e+00 -3.36849498e-05  2.79482917e-05  1.21616339e-05  1.32896851e-05  1.70718064e-05 
 3.00247811e-06  9.27000000e-01  1.79987495e+00 -7.20521617e-04  1.79993530e+00 -1.83313025e-04 -1.26772862e-04 -1.40881644e-04 -1.33425932e-04 -1.24183727e-04 
 3.00301876e-06  9.27000000e-01  1.80003148e+00 -3.94042887e-04  1.80050126e+00  1.19845045e-04 -1.22573262e-04 -1.36737151e-04 -1.33361483e-04 -1.27045494e-04 
 3.00357793e-06  9.27000000e-01  1.80009085e+00 -1.92870535e-05  1.79990129e+00  9.21419953e-04  3.09439432e-05  1.66487123e-05  1.06257996e-05  9.07875722e-06 
 3.00431822e-06  9.27000000e-01  1.79978164e+00 -3.10367596e-04  1.79105938e+00  7.86618491e-04  7.88575627e-05  7.19240857e-05  6.59066911e-05  6.39484131e-05 
 3.00499078e-06  9.27000000e-01  1.79969320e+00  3.49483969e-04  1.80208541e+00 -1.01441953e-03  4.84141921e-05  4.87602746e-05  4.64424345e-05  4.60662708e-05 
 3.00563799e-06  9.27000000e-01  1.80006886e+00  3.66379729e-03  1.87555860e+00 -1.73102007e-03  3.19179141e-05  3.23775533e-05  3.21966068e-05  3.22550469e-05 
 3.00631435e-06  9.27000000e-01  1.79998580e+00  4.15032669e-03  1.92118954e+00 -2.94008286e-03  1.46429089e-05  1.46583268e-05  1.54176351e-05  1.59174832e-05 
 3.00699659e-06  9.27000000e-01  1.79914427e+00 -4.94363936e-03  1.76372153e+00 -8.48982207e-03  8.43382015e-06  8.96368456e-06  9.52818654e-06  1.03176726e-05 
 3.00774061e-06  9.27000000e-01  1.79889133e+00 -1.55793459e-02  1.47516160e+00 -1.48061762e-02  7.48202992e-07  1.00779129e-06  1.54223823e-06  2.62299674e-06 
 3.00844458e-06  9.27000000e-01  1.79917992e+00 -2.06397594e-02  1.21457973e+00 -1.94137755e-02  2.14109020e-06  2.59747538e-06  2.79301513e-06  3.61785304e-06 
 3.00933042e-06  9.27000000e-01  1.79931573e+00 -2.44746065e-02  8.80619456e-01 -2.71406140e-02 -1.95204273e-06 -1.54606291e-06 -1.22636985e-06 -3.94080824e-07 
 3.01032471e-06  9.27000000e-01  1.79956059e+00 -2.46191370e-02  5.50824197e-01 -3.95718046e-02 -4.39273462e-06 -3.27532974e-06 -2.21326698e-06 -1.14269172e-06 
 3.01186929e-06  9.27000000e-01  1.79990160e+00 -1.84281050e-02  2.16272787e-01 -2.10640514e-02 -3.22494322e-05 -2.69535761e-05 -1.98109609e-05 -1.51661169e-05 
 3.01336736e-06  9.27000000e-01  1.79995852e+00 -1.03174867e-02  7.74071256e-02  1.36621171e-01 -1.69394061e-04 -1.38490389e-04 -1.03911907e-04 -7.63878260e-05 
 3.01495972e-06  9.27000000e-01  1.79985988e+00 -4.89440995e-03  2.01004025e-02  5.10067737e-01 -2.14852287e-04 -1.56397502e-04 -1.03756604e-04 -5.97711256e-05 
 3.01646146e-06  9.27000000e-01  1.79989348e+00 -1.83118527e-03  1.11410737e-02  1.03021617e+00 -1.01405569e-04 -3.99871794e-05 -2.47597774e-06  2.21421516e-05 
 3.01791653e-06  9.27000000e-01  1.79987339e+00 -6.73810747e-04  9.37501023e-03  1.59559771e+00  1.55189465e-05  6.18188783e-05  6.55760305e-05  5.92506105e-05 
 3.01901479e-06  9.27000000e-01  1.79994038e+00 -2.92051908e-04  6.43426889e-03  1.79224797e+00  1.71635660e-04  1.95181746e-04  1.54094811e-04  1.15397055e-04 
 3.02004224e-06  9.27000000e-01  1.79992093e+00 -2.21688990e-04  2.23129484e-03  1.81166049e+00  1.83694430e-04  1.78700768e-04  1.24301162e-04  7.17631983e-05 
 3.02121204e-06  9.27000000e-01  1.79990355e+00 -1.07008400e-04  2.37971732e-04  1.77497236e+00  1.14574398e-04  1.00363549e-04  4.85829301e-05  7.36294470e-06 
 3.02227235e-06  9.27000000e-01  1.79988653e+00 -5.73553280e-05 -6.10427811e-04  1.77649276e+00  7.57001776e-05  4.69657341e-05  8.29314635e-06 -1.56585639e-05 
 3.02337397e-06  9.27000000e-01  1.79988157e+00  2.64944256e-06 -4.34640136e-04  1.78286986e+00  3.53028250e-05  1.57027502e-05 -1.16196655e-05 -2.03226832e-05 
 3.02464834e-06  9.27000000e-01  1.79987916e+00  7.00281475e-06 -5.63122693e-04  1.80681062e+00  2.82212040e-05  1.74058829e-06 -1.43454882e-05 -1.34967467e-05 
 3.02636561e-06  9.27000000e-01  1.79987171e+00 -1.89230142e-06 -8.14269227e-04  1.79600549e+00 -1.74540906e-06 -1.29056041e-05 -1.74977276e-05 -1.08553077e-05 
 3.02823384e-06  9.27000000e-01  1.79986804e+00 -1.06936552e-05 -8.99192058e-04  1.80369363e+00 -2.27412510e-06 -1.76718029e-05 -1.43600811e-05 -7.01406601e-06 
 3.03140112e-06  9.27000000e-01  1.79986449e+00 -1.28198328e-05 -7.95419972e-04  1.79748818e+00 -1.86337751e-05 -1.55606012e-05 -7.90526190e-06 -2.65188791e-06 
 3.03669953e-06  9.27000000e-01  1.79986261e+00 -2.50467991e-05 -7.91297634e-04  1.80280063e+00 -5.05990781e-06 -7.57754986e-06 -1.62632093e-06 -3.27038174e-07 
 3.04484058e-06  9.27000000e-01  1.79986231e+00 -1.69862102e-05 -4.97371384e-04  1.79775631e+00 -9.98432302e-06 -1.98110873e-06 -1.02542755e-07 -4.41822872e-08 
 3.05948653e-06  9.27000000e-01  1.79986503e+00 -1.45378358e-05 -3.29061626e-04  1.80247234e+00  8.40058979e-06  2.20052822e-06  1.30865773e-06  8.24451390e-07 
 3.08232781e-06  9.27000000e-01  1.79987136e+00  9.28295829e-06 -2.20967051e-04  1.79780661e+00 -2.17735122e-07  2.38280879e-06  1.24485039e-06  6.43248115e-07 
 3.10955208e-06  9.27000000e-01  1.79988003e+00  2.11337212e-05 -2.09382076e-04  1.80215496e+00  1.24551983e-05  3.48255587e-06  1.90197497e-06  1.12383774e-06 
 3.12868449e-06  9.27000000e-01  1.79988300e+00  2.79070283e-05 -5.93601128e-05  1.79782522e+00 -1.91336704e-06  6.27045519e-07  3.22247161e-07  1.21470947e-07 
 3.14695585e-06  9.27000000e-01  1.79988116e+00  1.15724541e-05 -1.09942725e-04  1.80203394e+00  4.21100898e-06 -1.38546941e-06 -5.93380937e-07 -2.16022868e-07 
 3.16196822e-06  9.27000000e-01  1.79987939e+00  1.00485870e-05  1.06817183e-05  1.79791120e+00 -7.30721506e-06 -1.38759120e-06 -3.57029786e-07 -1.18640773e-07 
 3.17842105e-06  9.27000000e-01  1.79987862e+00  4.32055164e-07 -7.84550339e-05  1.80190446e+00  5.39685258e-06  1.45713207e-07  1.99514332e-07  1.64173207e-07 
 3.19794658e-06  9.27000000e-01  1.79987731e+00  3.61404548e-06  4.31884312e-05  1.79799496e+00 -6.60409927e-06 -1.04765933e-06 -4.32988066e-07 -1.94119792e-07 
 3.23699765e-06  9.27000000e-01  1.79987689e+00 -3.68736511e-06 -5.98789479e-05  1.80182994e+00  6.23896133e-06  8.63792254e-07  5.46268822e-07  3.73554574e-07 
 3.25010000e-06  9.27000000e-01  1.79987622e+00  2.50270828e-06  5.71106648e-05  1.79807442e+00 -6.24917597e-06 -8.19931651e-07 -4.57498373e-07 -2.60201757e-07 
 3.25011000e-06  9.27000000e-01  1.79989616e+00  3.83374865e-05  7.04126666e-05  1.79835259e+00  5.48955956e-05  4.89037066e-05  4.54659587e-05  4.25660544e-05 
 3.25013000e-06  9.27000000e-01  1.79992993e+00  1.14457717e-04  1.42828501e-04  1.79893803e+00  1.69973842e-04  1.50904350e-04  1.39547149e-04  1.30484120e-04 
 3.25017000e-06  9.27000000e-01  1.79998303e+00  3.27938408e-04  4.08268569e-04  1.79982757e+00  5.00008325e-04  4.46576341e-04  4.09916666e-04  3.85944684e-04 
 3.25020000e-06  9.27000000e-01  1.80001511e+00  5.26515115e-04  6.51054543e-04  1.80026857e+00  8.12829065e-04  7.25031409e-04  6.64805712e-04  6.28702189e-04 
 3.25020081e-06  9.27000000e-01  1.80001354e+00  5.28052422e-04  6.53378202e-04  1.80026898e+00  8.15014091e-04  7.27013734e-04  6.66674426e-04  6.30587601e-04 
 3.25020244e-06  9.27000000e-01  1.80001020e+00  5.30495213e-04  6.56857434e-04  1.80026208e+00  8.19284795e-04  7.30739579e-04  6.70077512e-04  6.33995780e-04 
 3.25020569e-06  9.27000000e-01  1.80000496e+00  5.37512216e-04  6.65479063e-04  1.80023944e+00  8.32437542e-04  7.42072596e-04  6.80463102e-04  6.44304487e-04 
 3.25021220e-06  9.27000000e-01  1.79999764e+00  5.55387495e-04  6.86607584e-04  1.80020361e+00  8.63578826e-04  7.68711311e-04  7.05075888e-04  6.68643930e-04 
 3.25022521e-06  9.27000000e-01  1.79998546e+00  5.85806237e-04  7.21289671e-04  1.80013340e+00  9.15059658e-04  8.12047988e-04  7.44988564e-04  7.08320941e-04 
 3.25025123e-06  9.27000000e-01  1.79996392e+00  6.11650326e-04  7.46997955e-04  1.80001270e+00  9.55464397e-04  8.44270291e-04  7.75599365e-04  7.41010633e-04 
 3.25030327e-06  9.27000000e-01  1.79992381e+00  5.46145476e-04  6.56977336e-04  1.79984655e+00  8.39986824e-04  7.37628610e-04  6.81010380e-04  6.57550242e-04 
 3.25040736e-06  9.27000000e-01  1.79987223e+00  3.16023063e-04  3.70095693e-04  1.79970308e+00  4.62609119e-04  3.99253191e-04  3.73520823e-04  3.71555053e-04 
 3.25061554e-06  9.27000000e-01  1.79984446e+00  2.64585506e-05  2.01324354e-05  1.79969208e+00  7.31577153e-06 -6.51236187e-06  7.05330166e-07  1.58146013e-05 
 3.25096925e-06  9.27000000e-01  1.79985894e+00 -1.02466691e-04 -1.30803371e-04  1.79980642e+00 -1.80622212e-04 -1.67532750e-04 -1.49353929e-04 -1.36481768e-04 
 3.25134135e-06  9.27000000e-01  1.79988242e+00 -2.03376236e-05 -2.48447802e-05  1.79999360e+00 -5.62114043e-05 -3.96514481e-05 -3.14709164e-05 -3.03603755e-05 
 3.25180973e-06  9.27000000e-01  1.79988648e+00  7.39627262e-05  9.02663927e-05  1.80010790e+00  7.94578923e-05  9.03664492e-05  8.89885013e-05  8.40281656e-05 
 3.25234124e-06  9.27000000e-01  1.79986084e+00 -6.49724256e-05 -7.62148913e-05  1.79998292e+00 -1.06717723e-04 -9.56229912e-05 -8.74281752e-05 -8.37036158e-05 
 3.25304237e-06  9.27000000e-01  1.79986700e+00 -1.32077828e-04 -1.57050015e-04  1.79986236e+00 -1.73097780e-04 -1.62810253e-04 -1.55651209e-04 -1.52156841e-04 
 3.25386114e-06  9.27000000e-01  1.79987887e+00 -5.91036359e-05 -2.33884610e-04  1.79845043e+00 -4.80878578e-05 -4.51500273e-05 -4.65865582e-05 -4.85097912e-05 
 3.25464606e-06  9.27000000e-01  1.79987902e+00 -2.08831328e-05 -9.24984056e-05  1.80753751e+00 -1.28135097e-05 -1.19649836e-05 -1.41378350e-05 -1.57923628e-05 
 3.25551744e-06  9.27000000e-01  1.79987798e+00  7.31835327e-06 -4.54604630e-05  1.80763201e+00  1.85021723e-05  1.82916480e-05  1.60740662e-05  1.43275406e-05 
 3.25637212e-06  9.27000000e-01  1.79987585e+00 -5.35150471e-07 -1.62208903e-04  1.79910743e+00  7.26620081e-06  7.87802216e-06  7.48336719e-06  7.01576865e-06 
 3.25723110e-06  9.27000000e-01  1.79987715e+00  1.04766111e-05 -5.89299089e-05  1.79943387e+00  1.18356499e-05  1.18462777e-05  1.14641854e-05  1.10107762e-05 
 3.25868411e-06  9.27000000e-01  1.79987607e+00  4.53304500e-06 -1.61079952e-06  1.80023716e+00  1.04292461e-06  1.27366792e-06  1.67802505e-06  1.87462732e-06 
 3.26002897e-06  9.27000000e-01  1.79987635e+00  3.17122506e-06 -1.01937524e-05  1.79956942e+00  3.54289954e-06  3.54941316e-06  3.51429909e-06  3.46738459e-06 
 3.26215065e-06  9.27000000e-01  1.79987628e+00 -6.11751375e-07  5.65495788e-06  1.80011952e+00 -1.53610529e-06 -1.42230345e-06 -1.19433986e-06 -1.03598693e-06 
 3.26494421e-06  9.27000000e-01  1.79987628e+00 -1.90602429e-07 -6.97183653e-06  1.79966336e+00  1.58901957e-06  1.58202236e-06  1.46435289e-06  1.37968997e-06 
 3.26939305e-06  9.27000000e-01  1.79987623e+00 -1.17248631e-06  4.55013149e-06  1.80006677e+00 -1.44217495e-06 -1.35546271e-06 -1.18776991e-06 -1.08159502e-06 
 3.27829072e-06  9.27000000e-01  1.79987611e+00 -2.65569624e-07 -6.00908903e-06  1.79969306e+00  1.41714724e-06  1.41915656e-06  1.30879727e-06  1.22663209e-06 
 3.29226583e-06  9.27000000e-01  1.79987600e+00 -1.04926001e-06  4.66049300e-06  1.80005147e+00 -1.33204870e-06 -1.25392083e-06 -1.10089332e-06 -1.00107671e-06 
 3.31890322e-06  9.27000000e-01  1.79987574e+00 -1.32183425e-07 -5.33784099e-06  1.79970157e+00  1.39064064e-06  1.38502464e-06  1.26816929e-06  1.18487245e-06 
 3.36546072e-06  9.27000000e-01  1.79987549e+00 -7.49642224e-07  4.97325040e-06  1.80004674e+00 -1.26686165e-06 -1.20662029e-06 -1.06678660e-06 -9.72543682e-07 
 3.44809031e-06  9.27000000e-01  1.79987514e+00  2.59961525e-07 -5.01128570e-06  1.79970418e+00  1.41475930e-06  1.38893004e-06  1.26327581e-06  1.17617926e-06 
 3.50000000e-06  9.27000000e-01  1.79987507e+00 -4.39007658e-07  5.04627278e-06  1.80004437e+00 -1.22421038e-06 -1.17972661e-06 -1.04710369e-06 -9.56638121e-07 
 3.50001000e-06  9.27000000e-01  1.79984984e+00 -5.58977677e-05 -6.28379410e-05  1.79987515e+00 -8.27466843e-05 -7.60082753e-05 -6.96194593e-05 -6.52686089e-05 
 3.50003000e-06  9.27000000e-01  1.79980962e+00 -1.70925049e-04 -2.03966751e-04  1.79955784e+00 -2.54577177e-04 -2.32616079e-04 -2.13273361e-04 -2.00406390e-04 
 3.50007000e-06  9.27000000e-01  1.79975367e+00 -4.43093112e-04 -5.33770594e-04  1.79910552e+00 -6.75683915e-04 -6.10402415e-04 -5.60438340e-04 -5.29674363e-04 
 3.50010000e-06  9.27000000e-01  1.79971957e+00 -6.60609900e-04 -7.91260729e-04  1.79888646e+00 -1.01362711e-03 -9.07814789e-04 -8.34626896e-04 -7.91623894e-04 
 3.50010433e-06  9.27000000e-01  1.79972946e+00 -6.65217703e-04 -7.96154271e-04  1.79892866e+00 -1.02308424e-03 -9.14421333e-04 -8.40839321e-04 -7.98217398e-04 
 3.50011298e-06  9.27000000e-01  1.79974662e+00 -6.74786633e-04 -8.06567568e-04  1.79901881e+00 -1.04384702e-03 -9.29136780e-04 -8.54475858e-04 -8.12556657e-04 
 3.50013030e-06  9.27000000e-01  1.79977099e+00 -6.84375732e-04 -8.14991939e-04  1.79917591e+00 -1.06680748e-03 -9.41214563e-04 -8.65726359e-04 -8.25972275e-04 
 3.50016492e-06  9.27000000e-01  1.79981239e+00 -6.38400676e-04 -7.54233117e-04  1.79941922e+00 -1.00193123e-03 -8.70410289e-04 -8.01016435e-04 -7.68828135e-04 
 3.50023417e-06  9.27000000e-01  1.79987106e+00 -4.41895088e-04 -5.09774994e-04  1.79971940e+00 -6.95053105e-04 -5.80643081e-04 -5.36684602e-04 -5.23995014e-04 
 3.50035990e-06  9.27000000e-01  1.79991223e+00 -1.40194223e-04 -1.42696087e-04  1.79994557e+00 -2.20748604e-04 -1.50437387e-04 -1.41739448e-04 -1.51667821e-04 
 3.50056031e-06  9.27000000e-01  1.79990941e+00  4.19909954e-05  7.21935321e-05  1.80002434e+00  6.08233285e-05  9.25905474e-05  8.36228564e-05  6.65661862e-05 
 3.50096114e-06  9.27000000e-01  1.79989352e+00  1.45259939e-04  1.83659788e-04  1.80001065e+00  2.12682406e-04  2.12793056e-04  1.97170967e-04  1.83116300e-04 
 3.50145486e-06  9.27000000e-01  1.79988029e+00  1.36072929e-04  1.48226604e-04  1.79968316e+00  1.90249782e-04  1.76470973e-04  1.66596477e-04  1.60675467e-04 
 3.50198401e-06  9.27000000e-01  1.79986501e+00  1.93269904e-05 -1.76169409e-05  1.79917163e+00  2.68952429e-05  1.16939707e-05  1.28507568e-05  1.66555047e-05 
 3.50245194e-06  9.27000000e-01  1.79985820e+00 -9.42481964e-05 -1.01857731e-04  1.79943564e+00 -1.22103093e-04 -1.35725305e-04 -1.28398868e-04 -1.19276466e-04 
 3.50302645e-06  9.27000000e-01  1.79986829e+00 -1.03660035e-04  4.88051523e-05  1.80143939e+00 -1.20254724e-04 -1.37760382e-04 -1.34321390e-04 -1.28006986e-04 
 3.50356167e-06  9.27000000e-01  1.79988236e+00  3.68581478e-06  2.49371151e-04  1.80196351e+00  3.00951736e-05  1.18182556e-05  5.98244939e-06  4.62172656e-06 
 3.50423204e-06  9.27000000e-01  1.79987966e+00  4.79459953e-05  1.78274505e-04  1.79724264e+00  8.22844747e-05  7.20557308e-05  6.56365846e-05  6.35065505e-05 
 3.50494883e-06  9.27000000e-01  1.79987544e+00  3.28164696e-05  1.96654385e-05  1.79227400e+00  5.16790620e-05  4.89507267e-05  4.65750344e-05  4.61964262e-05 
 3.50570395e-06  9.27000000e-01  1.79987633e+00  3.41353147e-05  1.91641118e-04  1.80105299e+00  3.12691245e-05  3.10448747e-05  3.08984517e-05  3.11155341e-05 
 3.50678122e-06  9.27000000e-01  1.79987405e+00  8.65736617e-06  6.22429825e-05  1.80133732e+00  8.24753036e-06  7.94840359e-06  8.95723261e-06  9.61284152e-06 
 3.50778087e-06  9.27000000e-01  1.79987518e+00  4.65090938e-06  1.44111446e-05  1.80022886e+00  4.37233918e-06  5.37556970e-06  5.85273655e-06  6.14899682e-06 
 3.50927471e-06  9.27000000e-01  1.79987499e+00 -7.21519116e-07  5.42311113e-07  1.80038811e+00 -2.08278419e-06 -1.18500903e-06 -8.57420780e-07 -6.20376173e-07 
 3.51027312e-06  9.27000000e-01  1.79987524e+00  1.31632878e-06  1.02632182e-06  1.80016360e+00  3.46897567e-06  1.87452319e-06  1.82102192e-06  1.82146143e-06 
 3.51142055e-06  9.27000000e-01  1.79987493e+00 -9.99853844e-07 -3.53854270e-06  1.80012216e+00 -4.23989595e-07 -1.24543066e-06 -1.12883786e-06 -1.03157029e-06 
 3.51246064e-06  9.27000000e-01  1.79987516e+00  8.58935159e-07 -5.46655903e-07  1.79998958e+00  2.56983395e-07  1.38809623e-06  1.30758918e-06  1.25753026e-06 
 3.51369966e-06  9.27000000e-01  1.79987493e+00 -8.80709030e-07 -4.71508504e-06  1.79985179e+00 -3.56971474e-06 -1.09440337e-06 -9.80213124e-07 -9.18863325e-07 
 3.51497517e-06  9.27000000e-01  1.79987513e+00  8.49897248e-07  1.89248633e-06  1.79991130e+00  1.23363710e-06  1.22242607e-06  1.13698719e-06  1.08601190e-06 
 3.51638774e-06  9.27000000e-01  1.79987493e+00 -7.32146415e-07 -2.55742061e-06  1.79984023e+00 -1.42139344e-06 -9.24283030e-07 -8.34182252e-07 -7.82691049e-07 
 3.51921289e-06  9.27000000e-01  1.79987511e+00  7.06339121e-07  2.45342333e-06  1.79990932e+00  1.52624299e-06  1.11239090e-06  1.03052462e-06  9.83360496e-07 
 3.52470936e-06  9.27000000e-01  1.79987492e+00 -7.33556272e-07 -2.28504969e-06  1.79984094e+00 -1.29272769e-06 -8.84165519e-07 -7.98231803e-07 -7.49233118e-07 
 3.53410283e-06  9.27000000e-01  1.79987509e+00  6.95585505e-07  2.39105282e-06  1.79990885e+00  1.48551553e-06  1.08747985e-06  1.00681798e-06  9.60686659e-07 
 3.55288978e-06  9.27000000e-01  1.79987488e+00 -6.96729349e-07 -2.24381002e-06  1.79984128e+00 -1.27475490e-06 -8.71564282e-07 -7.86905912e-07 -7.38823940e-07 
 3.59046368e-06  9.27000000e-01  1.79987502e+00  7.31860563e-07  2.38977689e-06  1.79990870e+00  1.47658314e-06  1.08095646e-06  9.99875962e-07  9.53654730e-07 
 3.66561148e-06  9.27000000e-01  1.79987480e+00 -6.32526913e-07 -2.21388132e-06  1.79984137e+00 -1.26772712e-06 -8.67495389e-07 -7.84216239e-07 -7.36908417e-07 
 3.75010000e-06  9.27000000e-01  1.79987496e+00  7.85768767e-07  2.40517821e-06  1.79990865e+00  1.47730264e-06  1.08020617e-06  9.98181976e-07  9.51523065e-07 
 3.75011000e-06  9.27000000e-01  1.79989506e+00  3.80960346e-05  4.44042031e-05  1.79995770e+00  5.61228666e-05  5.06400938e-05  4.68108692e-05  4.37016553e-05 
 3.75013000e-06  9.27000000e-01  1.79992877e+00  1.14263054e-04  1.30708283e-04  1.80002620e+00  1.69805181e-04  1.52512411e-04  1.40707461e-04  1.31459287e-04 
 3.75017000e-06  9.27000000e-01  1.79998161e+00  3.26391320e-04  3.82049279e-04  1.80017708e+00  5.01437386e-04  4.47876410e-04  4.10841456e-04  3.86697626e-04 
 3.75020000e-06  9.27000000e-01  1.80001367e+00  5.25686329e-04  6.19458295e-04  1.80026462e+00  8.13582917e-04  7.26005296e-04  6.65438588e-04  6.29184614e-04 
 3.75020081e-06  9.27000000e-01  1.80001211e+00  5.27253755e-04  6.21308787e-04  1.80026027e+00  8.16018966e-04  7.27991391e-04  6.67304570e-04  6.31066277e-04 
 3.75020244e-06  9.27000000e-01  1.80000881e+00  5.29809288e-04  6.24435442e-04  1.80025151e+00  8.20624772e-04  7.31723931e-04  6.70706670e-04  6.34471616e-04 
 3.75020569e-06  9.27000000e-01  1.80000363e+00  5.37092346e-04  6.33562686e-04  1.80023786e+00  8.33983992e-04  7.43044796e-04  6.81084463e-04  6.44771281e-04 
 3.75021219e-06  9.27000000e-01  1.79999643e+00  5.55391584e-04  6.55888451e-04  1.80021392e+00  8.65242986e-04  7.69634781e-04  7.05662251e-04  6.69076877e-04 
 3.75022520e-06  9.27000000e-01  1.79998440e+00  5.86534798e-04  6.93023044e-04  1.80016537e+00  9.16749016e-04  8.12900143e-04  7.45519415e-04  7.08698718e-04 
 3.75025121e-06  9.27000000e-01  1.79996303e+00  6.13386149e-04  7.23237812e-04  1.80007903e+00  9.57142061e-04  8.45045123e-04  7.76078952e-04  7.41335056e-04 
 3.75030323e-06  9.27000000e-01  1.79992300e+00  5.48873811e-04  6.40316962e-04  1.79995087e+00  8.41439715e-04  7.38424721e-04  6.81539307e-04  6.57916370e-04 
 3.75040727e-06  9.27000000e-01  1.79987118e+00  3.18758833e-04  3.59662962e-04  1.79982296e+00  4.63318096e-04  4.00074655e-04  3.74120678e-04  3.71987491e-04 
 3.75061536e-06  9.27000000e-01  1.79984295e+00  2.77932796e-05  1.25108627e-05  1.79976797e+00  6.87183936e-06 -5.93942408e-06  1.11262848e-06  1.60754919e-05 
 3.75096938e-06  9.27000000e-01  1.79985733e+00 -1.01820782e-04 -1.34985749e-04  1.79979903e+00 -1.81354250e-04 -1.67355124e-04 -1.49298124e-04 -1.36537697e-04 
 3.75134133e-06  9.27000000e-01  1.79988091e+00 -1.90825462e-05 -2.73992948e-05  1.79994016e+00 -5.67607263e-05 -3.92618666e-05 -3.12011524e-05 -3.01791073e-05 
 3.75180950e-06  9.27000000e-01  1.79988494e+00  7.53701331e-05  9.04159989e-05  1.80005544e+00  7.79202624e-05  9.06404907e-05  8.91854006e-05  8.41704863e-05 
 3.75234120e-06  9.27000000e-01  1.79985933e+00 -6.35355996e-05 -6.89522680e-05  1.80004788e+00 -1.07055483e-04 -9.56402408e-05 -8.75064609e-05 -8.38060528e-05 
 3.75304119e-06  9.27000000e-01  1.79986533e+00 -1.31409604e-04 -1.59871943e-04  1.79981084e+00 -1.71328030e-04 -1.62873670e-04 -1.55774545e-04 -1.52278284e-04 
 3.75385845e-06  9.27000000e-01  1.79987673e+00 -5.89116594e-05 -2.42651841e-04  1.79800625e+00 -4.67954129e-05 -4.55468428e-05 -4.70212417e-05 -4.89205777e-05 
 3.75463688e-06  9.27000000e-01  1.79987761e+00 -1.86270328e-05 -5.97533213e-05  1.80892657e+00 -1.35618939e-05 -1.22650604e-05 -1.44675824e-05 -1.61190915e-05 
 3.75552243e-06  9.27000000e-01  1.79987756e+00  1.09813567e-05  2.90702749e-05  1.81255667e+00  1.91218909e-05  1.85357086e-05  1.62747201e-05  1.45298044e-05 
 3.75637246e-06  9.27000000e-01  1.79987496e+00 -1.05436736e-06 -1.47554985e-04  1.80287715e+00  6.30150402e-06  7.82924084e-06  7.43489314e-06  6.97604918e-06 
 3.75716276e-06  9.27000000e-01  1.79987691e+00  7.93592583e-06 -1.09103166e-04  1.80038945e+00  1.12086542e-05  1.21878127e-05  1.17445893e-05  1.12696684e-05 
 3.75807721e-06  9.27000000e-01  1.79987523e+00  5.64436052e-06 -5.01392263e-05  1.80010003e+00  3.09891617e-06  3.13831574e-06  3.43783778e-06  3.53270883e-06 
 3.75909424e-06  9.27000000e-01  1.79987466e+00  6.10947325e-06 -2.55392597e-05  1.79969050e+00  4.85455517e-06  4.60678193e-06  4.57328902e-06  4.51052737e-06 
 3.76034944e-06  9.27000000e-01  1.79987412e+00  2.53581058e-06 -4.88123975e-06  1.79981131e+00  4.51508657e-07  5.72218559e-08  2.86463771e-07  4.33032085e-07 
 3.76155366e-06  9.27000000e-01  1.79987468e+00  2.18381418e-06 -2.24431145e-06  1.79974551e+00  1.79532431e-06  1.64447458e-06  1.58233742e-06  1.54838653e-06 
 3.76342343e-06  9.27000000e-01  1.79987453e+00  1.87019039e-07  7.21321162e-07  1.79978948e+00 -4.19089840e-07 -5.64339828e-07 -4.49025956e-07 -3.67087826e-07 
 3.76549230e-06  9.27000000e-01  1.79987481e+00  4.65602940e-07 -7.37198277e-07  1.79973089e+00  6.85449401e-07  7.95824727e-07  7.11590597e-07  6.58402690e-07 
 3.76866002e-06  9.27000000e-01  1.79987473e+00 -1.25795808e-07  7.82810950e-07  1.79977026e+00 -3.72854128e-07 -4.65693511e-07 -3.84837502e-07 -3.30717542e-07 
 3.77332669e-06  9.27000000e-01  1.79987492e+00  2.87163821e-07 -5.55381228e-07  1.79973100e+00  5.43061108e-07  6.32498745e-07  5.56690778e-07  5.05700740e-07 
 3.78266003e-06  9.27000000e-01  1.79987479e+00 -8.75667700e-08  7.53125176e-07  1.79976883e+00 -3.06419971e-07 -3.92314895e-07 -3.17803487e-07 -2.67718414e-07 
 3.80132671e-06  9.27000000e-01  1.79987493e+00  2.66789337e-07 -5.43955195e-07  1.79973174e+00  5.08021003e-07  5.94480739e-07  5.21590199e-07  4.72431303e-07 
 3.83715048e-06  9.27000000e-01  1.79987479e+00 -7.10743521e-08  7.49372762e-07  1.79976844e+00 -2.88878678e-07 -3.73631298e-07 -3.00801800e-07 -2.51743740e-07 
 3.90879801e-06  9.27000000e-01  1.79987492e+00  2.69259560e-07 -5.37977139e-07  1.79973195e+00  5.00049925e-07  5.85355012e-07  5.13122435e-07  4.64372610e-07 
 4.00000000e-06  9.27000000e-01  1.79987478e+00 -6.01260443e-08  7.50386586e-07  1.79976831e+00 -2.83102419e-07 -3.67759199e-07 -2.95556224e-07 -2.46846473e-07 
 4.00001000e-06  9.27000000e-01  1.79984964e+00 -5.52914134e-05 -6.39257014e-05  1.79970403e+00 -8.17543913e-05 -7.52420786e-05 -6.89108026e-05 -6.46014023e-05 
 4.00003000e-06  9.27000000e-01  1.79980967e+00 -1.69811225e-04 -1.99297670e-04  1.79958252e+00 -2.53921193e-04 -2.31884746e-04 -2.12582254e-04 -1.99756777e-04 
 4.00007000e-06  9.27000000e-01  1.79975380e+00 -4.41552359e-04 -5.22053702e-04  1.79939554e+00 -6.76465719e-04 -6.09890955e-04 -5.59932122e-04 -5.29196190e-04 
 4.00010000e-06  9.27000000e-01  1.79971963e+00 -6.59021786e-04 -7.76388155e-04  1.79931461e+00 -1.01485086e-03 -9.07412700e-04 -8.34226304e-04 -7.91244300e-04 
 4.00010433e-06  9.27000000e-01  1.79972950e+00 -6.63714028e-04 -7.82066064e-04  1.79933729e+00 -1.02452841e-03 -9.14039963e-04 -8.40457164e-04 -7.97854898e-04 
 4.00011298e-06  9.27000000e-01  1.79974662e+00 -6.73448581e-04 -7.94185095e-04  1.79937754e+00 -1.04550611e-03 -9.28792439e-04 -8.54128087e-04 -8.12225969e-04 
 4.00013030e-06  9.27000000e-01  1.79977094e+00 -6.83299455e-04 -8.05269516e-04  1.79945172e+00 -1.06824951e-03 -9.40931212e-04 -8.65439639e-04 -8.25698817e-04 
 4.00016492e-06  9.27000000e-01  1.79981223e+00 -6.37721393e-04 -7.48295868e-04  1.79957645e+00 -1.00302545e-03 -8.70228098e-04 -8.00832053e-04 -7.68651764e-04 
 4.00023417e-06  9.27000000e-01  1.79987077e+00 -4.41714173e-04 -5.08509476e-04  1.79972240e+00 -6.95230605e-04 -5.80594215e-04 -5.36643619e-04 -5.23954871e-04 
 4.00035985e-06  9.27000000e-01  1.79991190e+00 -1.40443828e-04 -1.45006713e-04  1.79981883e+00 -2.19432436e-04 -1.50608755e-04 -1.41931420e-04 -1.51849881e-04 
 4.00056023e-06  9.27000000e-01  1.79990915e+00  4.18246324e-05  6.93188488e-05  1.79984481e+00  6.42838861e-05  9.25329102e-05  8.35168027e-05  6.64619037e-05 
 4.00096100e-06  9.27000000e-01  1.79989334e+00  1.45267119e-04  1.81784079e-04  1.79982349e+00  2.19077056e-04  2.12837123e-04  1.97130506e-04  1.83072588e-04 
 4.00145400e-06  9.27000000e-01  1.79988018e+00  1.36322471e-04  1.48357752e-04  1.79953174e+00  1.85030934e-04  1.76521879e-04  1.66747777e-04  1.60810737e-04 
 4.00198274e-06  9.27000000e-01  1.79986485e+00  1.98433713e-05 -1.43262178e-05  1.79913799e+00 -1.46567103e-05  1.14561479e-05  1.31574401e-05  1.69450217e-05 
 4.00247829e-06  9.27000000e-01  1.79985794e+00 -9.87497636e-05 -1.07849981e-04  1.79954286e+00 -1.77101142e-04 -1.41493456e-04 -1.33537559e-04 -1.24295858e-04 
 4.00301915e-06  9.27000000e-01  1.79986844e+00 -1.04043585e-04  1.59194464e-05  1.80046295e+00  1.17419614e-04 -1.32648001e-04 -1.33179242e-04 -1.26877292e-04 
 4.00357847e-06  9.27000000e-01  1.79988438e+00  6.77167793e-06  2.16126573e-04  1.79991215e+00  9.15342857e-04  2.83664761e-05  1.08575793e-05  9.29906611e-06 
 4.00431838e-06  9.27000000e-01  1.79987416e+00  3.65920016e-05 -1.05273336e-04  1.79004735e+00  1.12275294e-03  8.23071636e-05  6.58389504e-05  6.38882739e-05 
 4.00499105e-06  9.27000000e-01  1.79987772e+00  3.90562793e-05  1.02522295e-06  1.80348561e+00 -8.87311494e-04  3.26456636e-05  4.64588733e-05  4.60938544e-05 
 4.00562988e-06  9.27000000e-01  1.79988410e+00  1.01866973e-04  1.52098278e-03  1.88662585e+00 -3.26193664e-03 -4.97973458e-06  3.23306389e-05  3.23832892e-05 
 4.00630928e-06  9.27000000e-01  1.79987543e+00  6.61797532e-05  1.72447788e-03  1.93893874e+00 -4.71153017e-03 -3.21583755e-05  1.55379386e-05  1.60320254e-05 
 4.00699573e-06  9.27000000e-01  1.79985609e+00 -1.67149740e-04 -2.73106312e-03  1.74877925e+00 -5.96632468e-03 -4.36864388e-05  9.36838532e-06  1.02070593e-05 
 4.00774173e-06  9.27000000e-01  1.79985802e+00 -3.12928627e-04 -7.68388103e-03  1.39797985e+00 -7.41695708e-03 -5.36768774e-05  1.38158868e-06  2.56221279e-06 
 4.00842322e-06  9.27000000e-01  1.79987258e+00 -2.71649949e-04 -9.67579110e-03  1.09178058e+00 -9.23271004e-03 -5.35592071e-05  2.58041913e-06  3.53078127e-06 
 4.00936680e-06  9.27000000e-01  1.79987545e+00 -1.85226711e-04 -1.09136261e-02  6.76794386e-01 -1.37111779e-02 -5.92714413e-05 -2.21201729e-06 -1.12484334e-06 
 4.01033447e-06  9.27000000e-01  1.79987510e+00 -3.85347713e-05 -9.51822676e-03  3.62237937e-01 -2.16458927e-02 -6.92736547e-05 -8.51513892e-06 -6.26107364e-06 
 4.01195588e-06  9.27000000e-01  1.79982134e+00  3.44147864e-05 -5.27278380e-03  9.75943680e-02  1.22161214e-02 -1.47311689e-04 -6.80887131e-05 -5.08401147e-05 
 4.01299168e-06  9.27000000e-01  1.79977118e+00 -5.55416544e-05 -3.01583844e-03  4.20213512e-02  1.18109525e-01 -2.15402272e-04 -1.15860471e-04 -8.02221850e-05 
 4.01421583e-06  9.27000000e-01  1.79978310e+00 -1.29005219e-04 -1.63495929e-03  5.50552652e-03  3.72559857e-01 -1.69536096e-04 -7.71022253e-05 -3.73556591e-05 
 4.01537823e-06  9.27000000e-01  1.79981540e+00 -1.14637813e-04 -6.65868085e-04  1.86887531e-03  7.36635524e-01 -7.77035407e-05 -7.63684331e-06  1.56513006e-05 
 4.01680543e-06  9.27000000e-01  1.79983417e+00 -1.01872472e-04 -2.97188467e-04 -2.59572041e-03  1.30475898e+00 -9.68242996e-06  3.55062986e-05  3.33446783e-05 
 4.01830361e-06  9.27000000e-01  1.79991045e+00  3.81475102e-05  5.89311544e-05 -7.97237451e-04  1.72087730e+00  1.19732096e-04  1.39365708e-04  8.62153868e-05 
 4.01944961e-06  9.27000000e-01  1.79993648e+00  1.26552222e-04  1.34644996e-04 -1.73037607e-03  1.81234598e+00  1.66333365e-04  1.65485542e-04  8.34605081e-05 
 4.02067994e-06  9.27000000e-01  1.79990495e+00  1.13886734e-04  1.48721360e-04 -8.33211175e-04  1.79793250e+00  9.64059173e-05  7.75911222e-05  1.49630260e-05 
 4.02191086e-06  9.27000000e-01  1.79988410e+00  6.53790737e-05  6.51466872e-05 -1.59157920e-03  1.77412881e+00  2.99288938e-05  7.14164763e-06 -2.20295015e-05 
 4.02320508e-06  9.27000000e-01  1.79987413e+00  3.38176972e-05  5.25045766e-05 -1.05128799e-03  1.77913260e+00 -1.60116071e-06 -2.11182589e-05 -2.43591102e-05 
 4.02470293e-06  9.27000000e-01  1.79987172e+00  8.05170554e-06  8.49841575e-06 -1.48353413e-03  1.80198848e+00 -1.56056298e-05 -2.73781515e-05 -1.66132736e-05 
 4.02624476e-06  9.27000000e-01  1.79987015e+00 -3.24306841e-06  1.46909956e-05 -9.95485544e-04  1.80116239e+00 -1.65653665e-05 -2.26641302e-05 -8.46819911e-06 
 4.02851270e-06  9.27000000e-01  1.79986272e+00 -2.15572044e-05 -1.81053571e-05 -1.24774841e-03  1.79967260e+00 -2.00903583e-05 -2.00842203e-05 -6.65053705e-06 
 4.03123508e-06  9.27000000e-01  1.79986310e+00 -2.54005345e-05 -6.75617316e-06 -7.10943373e-04  1.80130706e+00 -1.15663252e-05 -9.69938631e-06 -8.06517669e-07 
 4.03667983e-06  9.27000000e-01  1.79986239e+00 -2.54434511e-05 -2.02034849e-05 -7.57434103e-04  1.79949184e+00 -2.74594782e-06 -1.22473870e-06  4.12978694e-07 
 4.04746455e-06  9.27000000e-01  1.79987017e+00 -3.10645634e-06  1.24764297e-05 -2.84360157e-04  1.80116856e+00  7.74116918e-06  4.58171760e-06  2.50987627e-06 
 4.06042411e-06  9.27000000e-01  1.79987461e+00  1.14578207e-05  8.90243638e-06 -5.70094776e-04  1.79906200e+00  3.59726935e-06  5.74445460e-07  1.63944445e-07 
 4.07357844e-06  9.27000000e-01  1.79988435e+00  3.20485242e-05  3.54404272e-05 -6.17327693e-05  1.80093772e+00  9.62128837e-06  4.10235522e-06  3.22017452e-06 
 4.08632490e-06  9.27000000e-01  1.79979332e+00 -6.52433999e-05  3.40612837e-06 -2.93162539e-04  1.79902736e+00 -9.77912867e-05 -8.47397569e-05 -7.60580574e-05 
 4.09404897e-06  9.27000000e-01  1.79994895e+00  6.51994808e-05  2.37487183e-05  9.31676868e-05  1.80087447e+00  6.14417993e-05  4.92149715e-05  4.62547516e-05 
 4.10100536e-06  9.27000000e-01  1.79982717e+00 -1.56918710e-05 -1.50998025e-05 -2.18735191e-04  1.79903173e+00 -3.84645143e-05 -3.15396877e-05 -2.74279489e-05 
 4.10884804e-06  9.27000000e-01  1.79991775e+00  2.47633853e-05  1.64160054e-05  1.31216967e-04  1.80081034e+00  2.37768087e-05  1.81468239e-05  1.68533471e-05 
 4.11609929e-06  9.27000000e-01  1.79984857e+00 -4.30073694e-06 -1.58335244e-05 -1.78086080e-04  1.79907117e+00 -1.46793520e-05 -1.16396978e-05 -9.89513476e-06 
 4.12652488e-06  9.27000000e-01  1.79990024e+00  1.11042921e-05  1.16958777e-05  1.44697644e-04  1.80075434e+00  9.88899579e-06  7.39549331e-06  6.72346396e-06 
 4.13941632e-06  9.27000000e-01  1.79985783e+00 -3.19079244e-06 -1.43373824e-05 -1.56949583e-04  1.79910150e+00 -7.19936567e-06 -5.43278059e-06 -4.65410171e-06 
 4.15408261e-06  9.27000000e-01  1.79989135e+00  4.73926075e-06  1.04728811e-05  1.48469548e-04  1.80072087e+00  4.50004594e-06  3.26663584e-06  2.86389747e-06 
 4.16570538e-06  9.27000000e-01  1.79992203e+00  5.44587067e-05 -1.02301162e-05 -1.47424383e-04  1.79913483e+00  5.98767047e-05  5.00974733e-05  4.61764061e-05 
 4.17622477e-06  9.27000000e-01  1.79987711e+00  5.60022216e-06  6.02800797e-06  1.41662484e-04  1.80067696e+00  8.39367988e-07  1.81306532e-06  1.89248368e-06 
 4.18774348e-06  9.27000000e-01  1.79987746e+00 -1.58788370e-06 -8.19945988e-06 -1.41346082e-04  1.79917551e+00  3.60571534e-07  7.67366750e-08 -9.27651852e-08 
 4.19576830e-06  9.27000000e-01  1.79987277e+00  3.53230739e-07  7.45476576e-06  1.38142804e-04  1.80063469e+00 -4.93612953e-08 -1.84409286e-07  3.27427485e-08 
 4.20576559e-06  9.27000000e-01  1.79987980e+00  1.22330711e-07 -8.72514932e-06 -1.37356491e-04  1.79921971e+00 -2.79680489e-08  3.44428222e-07  1.46698348e-07 
 4.21384662e-06  9.27000000e-01  1.79987085e+00 -5.14172359e-07  8.02517806e-06  1.34555825e-04  1.80059129e+00  4.13962880e-07 -5.55828143e-08  1.50247255e-07 
 4.22292932e-06  9.27000000e-01  1.79988105e+00  3.51841801e-07 -8.70651023e-06 -1.33429258e-04  1.79926426e+00 -4.03362874e-07  1.45090148e-07 -3.46498885e-08 
 4.23750141e-06  9.27000000e-01  1.79986988e+00 -7.31787102e-07  8.12506796e-06  1.31630155e-04  1.80055771e+00  6.10215860e-07  8.14098778e-08  2.68569103e-07 
 4.25010000e-06  9.27000000e-01  1.79988140e+00  3.79837438e-07 -8.40622482e-06 -1.30890448e-04  1.79929161e+00 -4.60756271e-07  8.71567335e-08 -8.27680156e-08 
 4.25011000e-06  9.27000000e-01  1.79990071e+00  3.80148690e-05  3.69686228e-05 -2.79954659e-05  1.79956012e+00  5.11116469e-05  4.65151438e-05  4.31123541e-05 
 4.25013000e-06  9.27000000e-01  1.79993282e+00  1.13790674e-04  1.26577001e-04  1.32272835e-04  1.80004238e+00  1.52926914e-04  1.39985963e-04  1.30482386e-04 
 4.25017000e-06  9.27000000e-01  1.79998324e+00  3.24904943e-04  3.82256495e-04  4.54127090e-04  1.80073192e+00  4.45958843e-04  4.09091555e-04  3.84891861e-04 
 4.25020000e-06  9.27000000e-01  1.80001419e+00  5.24076759e-04  6.24678875e-04  7.34261013e-04  1.80104553e+00  7.22242575e-04  6.63509153e-04  6.27169229e-04 
 4.25020083e-06  9.27000000e-01  1.80001258e+00  5.25650830e-04  6.26660520e-04  7.35793760e-04  1.80104026e+00  7.24035655e-04  6.65337066e-04  6.29053130e-04 
 4.25020248e-06  9.27000000e-01  1.80000919e+00  5.28254041e-04  6.30119153e-04  7.38716070e-04  1.80102195e+00  7.27407411e-04  6.68704517e-04  6.32512849e-04 
 4.25020579e-06  9.27000000e-01  1.80000391e+00  5.35755717e-04  6.40126153e-04  7.49039661e-04  1.80097643e+00  7.38527521e-04  6.79260240e-04  6.43063559e-04 
 4.25021240e-06  9.27000000e-01  1.79999652e+00  5.54460218e-04  6.64192272e-04  7.74587888e-04  1.80089677e+00  7.65701258e-04  7.04297073e-04  6.67811458e-04 
 4.25022563e-06  9.27000000e-01  1.79998414e+00  5.86013037e-04  7.03989954e-04  8.15745223e-04  1.80074670e+00  8.09678192e-04  7.44483706e-04  7.07797846e-04 
 4.25025208e-06  9.27000000e-01  1.79996216e+00  6.12351373e-04  7.36120210e-04  8.43136621e-04  1.80049589e+00  8.41561231e-04  7.74210445e-04  7.39715035e-04 
 4.25030499e-06  9.27000000e-01  1.79992131e+00  5.44633241e-04  6.48751454e-04  7.28541156e-04  1.80014929e+00  7.31659480e-04  6.75556635e-04  6.52393184e-04 
 4.25041081e-06  9.27000000e-01  1.79986945e+00  3.11344106e-04  3.58344386e-04  3.88051413e-04  1.79983171e+00  3.90828879e-04  3.64716871e-04  3.63134419e-04 
 4.25062246e-06  9.27000000e-01  1.79984237e+00  2.13353165e-05  4.56610656e-06 -5.68924639e-06  1.79972245e+00 -1.17664644e-05 -6.14270848e-06  8.99650164e-06 
 4.25097674e-06  9.27000000e-01  1.79985794e+00 -1.02180040e-04 -1.38300492e-04 -1.53698133e-04  1.79982732e+00 -1.65058936e-04 -1.48608315e-04 -1.36049877e-04 
 4.25135026e-06  9.27000000e-01  1.79988185e+00 -1.62273394e-05 -2.75117235e-05 -2.69571255e-05  1.79998021e+00 -3.39059234e-05 -2.67126685e-05 -2.60003085e-05 
 4.25182275e-06  9.27000000e-01  1.79988486e+00  7.28490598e-05  8.18242254e-05  8.76695086e-05  1.80000602e+00  8.92528912e-05  8.66413432e-05  8.17660664e-05 
 4.25235668e-06  9.27000000e-01  1.79985962e+00 -6.79622747e-05 -8.65545455e-05 -1.02182690e-04  1.79986159e+00 -9.82225345e-05 -9.17304698e-05 -8.78890606e-05 
 4.25305309e-06  9.27000000e-01  1.79986646e+00 -1.29401960e-04 -1.49613211e-04 -1.56155413e-04  1.79966620e+00 -1.58917335e-04 -1.53539346e-04 -1.50184652e-04 
 4.25388235e-06  9.27000000e-01  1.79987859e+00 -4.90115766e-05 -4.69685732e-05 -3.86933961e-05  1.79810528e+00 -4.38302897e-05 -4.52254999e-05 -4.71452226e-05 
 4.25460281e-06  9.27000000e-01  1.79987742e+00 -2.24474930e-05 -1.70330269e-05 -1.21375745e-05  1.80770067e+00 -1.39154813e-05 -1.55438649e-05 -1.72121659e-05 
 4.25543373e-06  9.27000000e-01  1.79987719e+00  5.78408248e-06  1.31074811e-05  1.79473299e-05  1.80859518e+00  1.87147954e-05  1.46929656e-05  1.29225461e-05 
 4.25621927e-06  9.27000000e-01  1.79987544e+00  4.21029071e-06  7.58018239e-06  8.65884138e-06  1.79918975e+00  7.12103221e-06  8.00623113e-06  7.43693522e-06 
 4.25703443e-06  9.27000000e-01  1.79987578e+00  8.65953337e-06  1.12480661e-05  1.26892138e-05  1.79941782e+00  1.09092337e-05  1.17288368e-05  1.12166549e-05 
 4.25826366e-06  9.27000000e-01  1.79987528e+00  3.24895594e-06  3.25341827e-06  3.22699956e-06  1.80022332e+00  1.68152675e-06  3.20257560e-06  3.32625704e-06 
 4.25952612e-06  9.27000000e-01  1.79987549e+00  3.42263494e-06  3.63343397e-06  3.99379380e-06  1.79958694e+00  3.51971040e-06  3.86941744e-06  3.82592679e-06 
 4.26152865e-06  9.27000000e-01  1.79987537e+00 -2.81765299e-07 -7.03087147e-07 -9.22974594e-07  1.80009658e+00 -1.08784901e-06 -6.40063582e-07 -4.91045124e-07 
 4.26419735e-06  9.27000000e-01  1.79987546e+00  6.02744156e-07  8.87911157e-07  1.21930977e-06  1.79968446e+00  1.38515586e-06  1.19605577e-06  1.12047960e-06 
 4.26778701e-06  9.27000000e-01  1.79987537e+00 -8.51312522e-07 -9.78754062e-07 -1.04923135e-06  1.80004214e+00 -1.11009651e-06 -8.73493128e-07 -7.86784062e-07 
 4.27496633e-06  9.27000000e-01  1.79987538e+00  4.19256083e-07  7.46937368e-07  1.05334878e-06  1.79971811e+00  1.22805704e-06  1.02074065e-06  9.44683193e-07 
 4.28833820e-06  9.27000000e-01  1.79987529e+00 -7.69124044e-07 -8.57342533e-07 -9.46909544e-07  1.80002659e+00 -1.01640345e-06 -7.93977516e-07 -7.11868042e-07 
 4.31121504e-06  9.27000000e-01  1.79987525e+00  4.34020563e-07  7.74266921e-07  1.03079804e-06  1.79972645e+00  1.18845602e-06  9.81327113e-07  9.06319807e-07 
 4.33401579e-06  9.27000000e-01  1.79987515e+00 -6.80814154e-07 -7.65609988e-07 -8.89664444e-07  1.80002062e+00 -9.77709847e-07 -7.61264388e-07 -6.81956739e-07 
 4.36176692e-06  9.27000000e-01  1.79987512e+00  4.85944126e-07  7.97294659e-07  1.01909229e-06  1.79973181e+00  1.16274101e-06  9.56130114e-07  8.81596063e-07 
 4.40747007e-06  9.27000000e-01  1.79987502e+00 -5.74589487e-07 -6.99574644e-07 -8.48238141e-07  1.80001681e+00 -9.51706127e-07 -7.39472798e-07 -6.62302899e-07 
 4.49887637e-06  9.27000000e-01  1.79987495e+00  5.98309416e-07  8.39372723e-07  1.02897920e-06  1.79973397e+00  1.15579288e-06  9.47707192e-07  8.72556950e-07 
 4.50000000e-06  9.27000000e-01  1.79987495e+00 -3.02807892e-07 -4.15040223e-07 -5.27112822e-07  1.79996803e+00 -6.47989525e-07 -4.64072549e-07 -4.02588718e-07 
 4.50001000e-06  9.27000000e-01  1.79984983e+00 -5.54871435e-05 -6.51399487e-05 -7.43343422e-05  1.79977693e+00 -7.51292736e-05 -6.91937941e-05 -6.47353984e-05 
 4.50003000e-06  9.27000000e-01  1.79980995e+00 -1.69830799e-04 -2.00906651e-04 -2.28744503e-04  1.79941891e+00 -2.30550316e-04 -2.12788267e-04 -1.99769166e-04 
